0,1,2,3,4,5,6,7,8,9,10,11,12,13,14,15,16,17,18,19,20,21,22,23,24,25,26,27,28,29,30,31,32,33,34,35,36,37,38,39,40,41,42,43,44,45,46,47,48,49,50,51,52,53,54,55,56,57,58,59,60,61,62,63,64,65,66,67,68,69,70,71,72,73,74,75,76,77,78,79,80,81,82,83,84,85,86,87,88,89,90,91,92,93,94,95,96,97,98,99,100,101,102,103,104,105,106,107,108,109,110,111,112,113,114,115,116,117,118,119,120,121,122,123,124,125,126,127,128,129,130,131,132,133,134,135,136,137,138,139,140,141,142,143,144,145,146,147,148,149,150,151,152,153,154,155,156,157,158,159,160,161,162,163,164,165,166,167,168,169,170,171,172,173,174,175,176,177,178,179,180,181,182,183,184,185,186,187,188,189,190,191,192,193,194,195,196,197,198,199,200,201,202,203,204,205,206,207,208,209,210,211,212,213,214,215,216,217,218,219,220,221,222,223,224,225,226,227,228,229,230,231,232,233,234,235,236,237,238,239,240,241,242,243,244,245,246,247,248,249,250,251,252,253,254,255,256,257,258,259,260,261,262,263,264,265,266,267,268,269,270,271,272,273,274,275,276,277,278,279,280,281,282,283,284,285,286,287,288,289,290,291,292,293,294,295,296,297,298,299,300,301,302,303,304,305,306,307,308,309,310,311,312,313,314,315,316,317,318,319,320,321,322,323,324,325,326,327,328,329,330,331,332,333,334,335,336,337,338,339,340,341,342,343,344,345,346,347,348,349,350,351,352,353,354,355,356,357,358,359,360,361,362,363,364,365,366,367,368,369,370,371,372,373,374,375,376,377,378,379,380,381,382,383,384,385,386,387,388,389,390,391,392,393,394,395,396,397,398,399,400,401,402,403,404,405,406,407,408,409,410,411,412,413,414,415,416,417,418,419,420,421,422,423,424,425,426,427,428,429,430,431,432,433,434,435,436,437,438,439,440,441,442,443,444,445,446,447,448,449,450,451,452,453,454,455,456,457,458,459,460,461,462,463,464,465,466,467,468,469,470,471,472,473,474,475,476,477,478,479,480,481,482,483,484,485,486,487,488,489,490,491,492,493,494,495,496,497,498,499,500,501,502,503,504,505,506,507,508,509,510,511,512,513,514,515,516,517,518,519,520,521,522,523,524,525,526,527,528,529,530,531,532,533,534,535,536,537,538,539,540,541,542,543,544,545,546,547,548,549,550,551,552,553,554,555,556,557,558,559,560,561,562,563,564,565,566,567,568,569,570,571,572,573,574,575,576,577,578,579,580,581,582,583,584,585,586,587,588,589,590,591,592,593,594,595,596,597,598,599,600,601,602,603,604,605,606,607,608,609,610,611,612,613,614,615,616,617,618,619,620,621,622,623,624,625,626,627,628,629,630,631,632,633,634,635,636,637,638,639,640,641,642,643,644,645,646,647,648,649,650,651,652,653,654,655,656,657,658,659,660,661,662,663,664,665,666,667,668,669,670,671,672,673,674,675,676,677,678,679,680,681,682,683,684,685,686,687,688,689,690,691,692,693,694,695,696,697,698,699,700,701,702,703,704,705,706,707,708,709,710,711,712,713,714,715,716,717,718,719,720,721,722,723,724,725,726,727,728,729,730,731,732,733,734,735,736,737,738,739,740,741,742,743,744,745,746,747,748,749,750,751,752,753,754,755,756,757,758,759,760,761,762,763,764,765,766,767,768,769,770,771,772,773,774,775,776,777,778,779,780,781,782,783,784,785,786,787,788,789,790,791,792,793,794,795,796,797,798,799,800,801,802,803,804,805,806,807,808,809,810,811,812,813,814,815,816,817,818,819,820,821,822,823,824,825,826,827,828,829,830,831,832,833,834,835,836,837,838,839,840,841,842,843,844,845,846,847,848,849,850,851,852,853,854,855,856,857,858,859,860,861,862,863,864,865,866,867,868,869,870,871,872,873,874,875,876,877,878,879,880,881,882,883,884,885,886,887,888,889,890,891,892,893,894,895,896,897,898,899,900,901,902,903,904,905,906,907,908,909,910,911,912,913,914,915,916,917,918,919,920,921,922,923,924,925,926,927,928,929,930,931,932,933,934,935,936,937,938,939,940,941,942,943,944,945,946,947,948,949,950,951,952,953,954,955,956,957,958,959,960,961,962,963,964,965,966,967,968,969,970,971,972,973,974,975,976,977,978,979,980,981,982,983,984,985,986,987,988,989,990,991,992,993,994,995,996,997,998,999,1000,1001,1002,1003,1004,1005,1006,1007,1008,1009,1010,1011,1012,1013,1014,1015,1016,1017,1018,1019,1020,1021,1022,1023,1024,1025,1026,1027,1028,1029,1030,1031,1032,1033,1034,1035,1036,1037,1038,1039,1040,1041,1042,1043,1044,1045,1046,1047,1048,1049,1050,1051,1052,1053,1054,1055,1056,1057,1058,1059,1060,1061,1062,1063,1064,1065,1066,1067,1068,1069,1070,1071,1072,1073,1074,1075,1076,1077,1078,1079,1080,1081,1082,1083,1084,1085,1086,1087,1088,1089,1090,1091,1092,1093,1094,1095,1096,1097,1098,1099,1100,1101,1102,1103,1104,1105,1106,1107,1108,1109,1110,1111,1112,1113,1114,1115,1116,1117,1118,1119,1120,1121,1122,1123,1124,1125,1126,1127,1128,1129,1130,1131,1132,1133,1134,1135,1136,1137,1138,1139,1140,1141,1142,1143,1144,1145,1146,1147,1148,1149,1150,1151,1152,1153,1154,1155,1156,1157,1158,1159,1160,1161,1162,1163,1164,1165,1166,1167,1168,1169,1170,1171,1172,1173,1174,1175,1176,1177,1178,1179,1180,1181,1182,1183,1184,1185,1186,1187,1188,1189,1190,1191,1192,1193,1194,1195,1196,1197,1198,1199,1200,1201,1202,1203,1204,1205,1206,1207,1208,1209,1210,1211,1212,1213,1214,1215,1216,1217,1218,1219,1220,1221,1222,1223,1224,1225,1226,1227,1228,1229,1230,1231,1232,1233,1234,1235,1236,1237,1238,1239,1240,1241,1242,1243,1244,1245,1246,1247,1248,1249,1250,1251,1252,1253,1254,1255,1256,1257,1258,1259,1260,1261,1262,1263,1264,1265,1266,1267,1268,1269,1270,1271,1272,1273,1274,1275,1276,1277,1278,1279,1280,1281,1282,1283,1284,1285,1286,1287,1288,1289,1290,1291,1292,1293,1294,1295,1296,1297,1298,1299,1300,1301,1302,1303,1304,1305,1306,1307,1308,1309,1310,1311,1312,1313,1314,1315,1316,1317,1318,1319,1320,1321,1322,1323,1324,1325,1326,1327,1328,1329,1330,1331,1332,1333,1334,1335,1336,1337,1338,1339,1340,1341,1342,1343,1344,1345,1346,1347,1348,1349,1350,1351,1352,1353,1354,1355,1356,1357,1358,1359,1360,1361,1362,1363,1364,1365,1366,1367,1368,1369,1370,1371,1372,1373,1374,1375,1376,1377,1378,1379,1380,1381,1382,1383,1384,1385,1386,1387,1388,1389,1390,1391,1392,1393,1394,1395,1396,1397,1398,1399,1400,1401,1402,1403,1404,1405,1406,1407,1408,1409,1410,1411,1412,1413,1414,1415,1416,1417,1418,1419,1420,1421,1422,1423,1424,1425,1426,1427,1428,1429,1430,1431,1432,1433,1434,1435,1436,1437,1438,1439,1440,1441,1442,1443,1444,1445,1446,1447,1448,1449,1450,1451,1452,1453,1454,1455,1456,1457,1458,1459,1460,1461,1462,1463,1464,1465,1466,1467,1468,1469,1470,1471,1472,1473,1474,1475,1476,1477,1478,1479,1480,1481,1482,1483,1484,1485,1486,1487,1488,1489,1490,1491,1492,1493,1494,1495,1496,1497,1498,1499,1500,1501,1502,1503,1504,1505,1506,1507,1508,1509,1510,1511,1512,1513,1514,1515,1516,1517,1518,1519,1520,1521,1522,1523,1524,1525,1526,1527,1528,1529,1530,1531,1532,1533,1534,1535,1536,1537,1538,1539,1540,1541,1542,1543,1544,1545,1546,1547,1548,1549,1550,1551,1552,1553,1554,1555,1556,1557,1558,1559,1560,1561,1562,1563,1564,1565,1566,1567,1568,1569,1570,1571,1572,1573,1574,1575,1576,1577,1578,1579,1580,1581,1582,1583,1584,1585,1586,1587,1588,1589,1590,1591,1592,1593,1594,1595,1596,1597,1598,1599,1600,1601,1602,1603,1604,1605,1606,1607,1608,1609,1610,1611,1612,1613,1614,1615,1616,1617,1618,1619,1620,1621,1622,1623,1624,1625,1626,1627,1628,1629,1630,1631,1632,1633,1634,1635,1636,1637,1638,1639,1640,1641,1642,1643,1644,1645,1646,1647,1648,1649,1650,1651,1652,1653,1654,1655,1656,1657,1658,1659,1660,1661,1662,1663,1664,1665,1666,1667,1668,1669,1670,1671,1672,1673,1674,1675,1676,1677,1678,1679,1680,1681,1682,1683,1684,1685,1686,1687,1688,1689,1690,1691,1692,1693,1694,1695,1696,1697,1698,1699,1700,1701,1702,1703,1704,1705,1706,1707,1708,1709,1710,1711,1712,1713,1714,1715,1716,1717,1718,1719,1720,1721,1722,1723,1724,1725,1726,1727,1728,1729,1730,1731,1732,1733,1734,1735,1736,1737,1738,1739,1740,1741,1742,1743,1744,1745,1746,1747,1748,1749,1750,1751,1752,1753,1754,1755,1756,1757,1758,1759,1760,1761,1762,1763,1764,1765,1766,1767,1768,1769,1770,1771,1772,1773,1774,1775,1776,1777,1778,1779,1780,1781,1782,1783,1784,1785,1786,1787,1788,1789,1790,1791,1792,1793,1794,1795,1796,1797,1798,1799,1800,1801,1802,1803,1804,1805,1806,1807,1808,1809,1810,1811,1812,1813,1814,1815,1816,1817,1818,1819,1820,1821,1822,1823,1824,1825,1826,1827,1828,1829,1830,1831,1832,1833,1834,1835,1836,1837,1838,1839,1840,1841,1842,1843,1844,1845,1846,1847,1848,1849,1850,1851,1852,1853,1854,1855,1856,1857,1858,1859,1860,1861,1862,1863,1864,1865,1866,1867,1868,1869,1870,1871,1872,1873,1874,1875,1876,1877,1878,1879,1880,1881,1882,1883,1884,1885,1886,1887,1888,1889,1890,1891,1892,1893,1894,1895,1896,1897,1898,1899,1900,1901,1902,1903,1904,1905,1906,1907,1908,1909,1910,1911,1912,1913,1914,1915,1916,1917,1918,1919,1920,1921,1922,1923,1924,1925,1926,1927,1928,1929,1930,1931,1932,1933,1934,1935,1936,1937,1938,1939,1940,1941,1942,1943,1944,1945,1946,1947,1948,1949,1950,1951,1952,1953,1954,1955,1956,1957,1958,1959,1960,1961,1962,1963,1964,1965,1966,1967,1968,1969,1970,1971,1972,1973,1974,1975,1976,1977,1978,1979,1980,1981,1982,1983,1984,1985,1986,1987,1988,1989,1990,1991,1992,1993,1994,1995,1996,1997,1998,1999,2000,2001,2002,2003,2004,2005,2006,2007,2008,2009,2010,2011,2012,2013,2014,2015,2016,2017,2018,2019,2020,2021,2022,2023,2024,2025,2026,2027,2028,2029,2030,2031,2032,2033,2034,2035,2036,2037,2038,2039,2040,2041,2042,2043,2044,2045,2046,2047,2048,2049,2050,2051,2052,2053,2054,2055,2056,2057,2058,2059,2060,2061,2062,2063,2064,2065,2066,2067,2068,2069,2070,2071,2072,2073,2074,2075,2076,2077,2078,2079,2080,2081,2082,2083,2084,2085,2086,2087,2088,2089,2090,2091,2092,2093,2094,2095,2096,2097,2098,2099,2100,2101,2102,2103,2104,2105,2106,2107,2108,2109,2110,2111,2112,2113,2114,2115,2116,2117,2118,2119,2120,2121,2122,2123,2124,2125,2126,2127,2128,2129,2130,2131,2132,2133,2134,2135,2136,2137,2138,2139,2140,2141,2142,2143,2144,2145,2146,2147,2148,2149,2150,2151,2152,2153,2154,2155,2156,2157,2158,2159,2160,2161,2162,2163,2164,2165,2166,2167,2168,2169,2170,2171,2172,2173,2174,2175,2176,2177,2178,2179,2180,2181,2182,2183,2184,2185,2186,2187,2188,2189,2190,2191,2192,2193,2194,2195,2196,2197,2198,2199,2200,2201,2202,2203,2204,2205,2206,2207,2208,2209,2210,2211,2212,2213,2214,2215,2216,2217,2218,2219,2220,2221,2222,2223,2224,2225,2226,2227,2228,2229,2230,2231,2232,2233,2234,2235,2236,2237,2238,2239,2240,2241,2242,2243,2244,2245,2246,2247,2248,2249,2250,2251,2252,2253,2254,2255,2256,2257,2258,2259,2260,2261,2262,2263,2264,2265,2266,2267,2268,2269,2270,2271,2272,2273,2274,2275,2276,2277,2278,2279,2280,2281,2282,2283,2284,2285,2286,2287,2288,2289,2290,2291,2292,2293,2294,2295,2296,2297,2298,2299,2300,2301,2302,2303,2304,2305,2306,2307,2308,2309,2310,2311,2312,2313,2314,2315,2316,2317,2318,2319,2320,2321,2322,2323,2324,2325,2326,2327,2328,2329,2330,2331,2332,2333,2334,2335,2336,2337,2338,2339,2340,2341,2342,2343,2344,2345,2346,2347,2348,2349,2350,2351,2352,2353,2354,2355,2356,2357,2358,2359,2360,2361,2362,2363,2364,2365,2366,2367,2368,2369,2370,2371,2372,2373,2374,2375,2376,2377,2378,2379,2380,2381,2382,2383,2384,2385,2386,2387,2388,2389,2390,2391,2392,2393,2394,2395,2396,2397,2398,2399,2400,2401,2402,2403,2404,2405,2406,2407,2408,2409,2410,2411,2412,2413,2414,2415,2416,2417,2418,2419,2420,2421,2422,2423,2424,2425,2426,2427,2428,2429,2430,2431,2432,2433,2434,2435,2436,2437,2438,2439,2440,2441,2442,2443,2444,2445,2446,2447,2448,2449,2450,2451,2452,2453,2454,2455,2456,2457,2458,2459,2460,2461,2462,2463,2464,2465,2466,2467,2468,2469,2470,2471,2472,2473,2474,2475,2476,2477,2478,2479,2480,2481,2482,2483,2484,2485,2486,2487,2488,2489,2490,2491,2492,2493,2494,2495,2496,2497,2498,2499,2500,2501,2502,2503,2504,2505,2506,2507,2508,2509,2510,2511,2512,2513,2514,2515,2516,2517,2518,2519,2520,2521,2522,2523,2524,2525,2526,2527,2528,2529,2530,2531,2532,2533,2534,2535,2536,2537,2538,2539,2540,2541,2542,2543,2544,2545,2546,2547,2548,2549,2550,2551,2552,2553,2554,2555,2556,2557,2558,2559,2560,2561,2562,2563,2564,2565,2566,2567,2568,2569,2570,2571,2572,2573,2574,2575,2576,2577,2578,2579,2580,2581,2582,2583,2584,2585,2586,2587,2588,2589,2590,2591,2592,2593,2594,2595,2596,2597,2598,2599,2600,2601,2602,2603,2604,2605,2606,2607,2608,2609,2610,2611,2612,2613,2614,2615,2616,2617,2618,2619,2620,2621,2622,2623,2624,2625,2626,2627,2628,2629,2630,2631,2632,2633,2634,2635,2636,2637,2638,2639,2640,2641,2642,2643,2644,2645,2646,2647,2648,2649,2650,2651,2652,2653,2654,2655,2656,2657,2658,2659,2660,2661,2662,2663,2664,2665,2666,2667,2668,2669,2670,2671,2672,2673,2674,2675,2676,2677,2678,2679,2680,2681,2682,2683,2684,2685,2686,2687,2688,2689,2690,2691,2692,2693,2694,2695,2696,2697,2698,2699,2700,2701,2702,2703,2704,2705,2706,2707,2708,2709,2710,2711,2712,2713,2714,2715,2716,2717,2718,2719,2720,2721,2722,2723,2724,2725,2726,2727,2728,2729,2730,2731,2732,2733,2734,2735,2736,2737,2738,2739,2740,2741,2742,2743,2744,2745,2746,2747,2748,2749,2750,2751,2752,2753,2754,2755,2756,2757,2758,2759,2760,2761,2762,2763,2764,2765,2766,2767,2768,2769,2770,2771,2772,2773,2774,2775,2776,2777,2778,2779,2780,2781,2782,2783,2784,2785,2786,2787,2788,2789,2790,2791,2792,2793,2794,2795,2796,2797,2798,2799,2800,2801,2802,2803,2804,2805,2806,2807,2808,2809,2810,2811,2812,2813,2814,2815,2816,2817,2818,2819,2820,2821,2822,2823,2824,2825,2826,2827,2828,2829,2830,2831,2832,2833,2834,2835,2836,2837,2838,2839,2840,2841,2842,2843,2844,2845,2846,2847,2848,2849,2850,2851,2852,2853,2854,2855,2856,2857,2858,2859,2860,2861,2862,2863,2864,2865,2866,2867,2868,2869,2870,2871,2872,2873,2874,2875,2876,2877,2878,2879,2880,2881,2882,2883,2884,2885,2886,2887,2888,2889,2890,2891,2892,2893,2894,2895,2896,2897,2898,2899,2900,2901,2902,2903,2904,2905,2906,2907,2908,2909,2910,2911,2912,2913,2914,2915,2916,2917,2918,2919,2920,2921,2922,2923,2924,2925,2926,2927,2928,2929,2930,2931,2932,2933,2934,2935,2936,2937,2938,2939,2940,2941,2942,2943,2944,2945,2946,2947,2948,2949,2950,2951,2952,2953,2954,2955,2956,2957,2958,2959,2960,2961,2962,2963,2964,2965,2966,2967,2968,2969,2970,2971,2972,2973,2974,2975,2976,2977,2978,2979,2980,2981,2982,2983,2984,2985,2986,2987,2988,2989,2990,2991,2992,2993,2994,2995,2996,2997,2998,2999,3000,3001,3002,3003,3004,3005,3006,3007,3008,3009,3010,3011,3012,3013,3014,3015,3016,3017,3018,3019,3020,3021,3022,3023,3024,3025,3026,3027,3028,3029,3030,3031,3032,3033,3034,3035,3036,3037,3038,3039,3040,3041,3042,3043,3044,3045,3046,3047,3048,3049,3050,3051,3052,3053,3054,3055,3056,3057,3058,3059,3060,3061,3062,3063,3064,3065,3066,3067,3068,3069,3070,3071,3072,3073,3074,3075,3076,3077,3078,3079,3080,3081,3082,3083,3084,3085,3086,3087,3088,3089,3090,3091,3092,3093,3094,3095,3096,3097,3098,3099,3100,3101,3102,3103,3104,3105,3106,3107,3108,3109,3110,3111,3112,3113,3114,3115,3116,3117,3118,3119,3120,3121,3122,3123,3124,3125,3126,3127,3128,3129,3130,3131,3132,3133,3134,3135,3136,3137,3138,3139,3140,3141,3142,3143,3144,3145,3146,3147,3148,3149,3150,3151,3152,3153,3154,3155,3156,3157,3158,3159,3160,3161,3162,3163,3164,3165,3166,3167,3168,3169,3170,3171,3172,3173,3174,3175,3176,3177,3178,3179,3180,3181,3182,3183,3184,3185,3186,3187,3188,3189,3190,3191,3192,3193,3194,3195,3196,3197,3198,3199,3200,3201,3202,3203,3204,3205,3206,3207,3208,3209,3210,3211,3212,3213,3214,3215,3216,3217,3218,3219,3220,3221,3222,3223,3224,3225,3226,3227,3228,3229,3230,3231,3232,3233,3234,3235,3236,3237,3238,3239,3240,3241,3242,3243,3244,3245,3246,3247,3248,3249,3250,3251,3252,3253,3254,3255,3256,3257,3258,3259,3260,3261,3262,3263,3264,3265,3266,3267,3268,3269,3270,3271,3272,3273,3274,3275,3276,3277,3278,3279,3280,3281,3282,3283,3284,3285,3286,3287,3288,3289,3290,3291,3292,3293,3294,3295,3296,3297,3298,3299,3300,3301,3302,3303,3304,3305,3306,3307,3308,3309,3310,3311,3312,3313,3314,3315,3316,3317,3318,3319,3320,3321,3322,3323,3324,3325,3326,3327,3328,3329,3330,3331,3332,3333,3334,3335,3336,3337,3338,3339,3340,3341,3342,3343,3344,3345,3346,3347,3348,3349,3350,3351,3352,3353,3354,3355,3356,3357,3358,3359,3360,3361,3362,3363,3364,3365,3366,3367,3368,3369,3370,3371,3372,3373,3374,3375,3376,3377,3378,3379,3380,3381,3382,3383,3384,3385,3386,3387,3388,3389,3390,3391,3392,3393,3394,3395,3396,3397,3398,3399,3400,3401,3402,3403,3404,3405,3406,3407,3408,3409,3410,3411,3412,3413,3414,3415,3416,3417,3418,3419,3420,3421,3422,3423,3424,3425,3426,3427,3428,3429,3430,3431,3432,3433,3434,3435,3436,3437,3438,3439,3440,3441,3442,3443,3444,3445,3446,3447,3448,3449,3450,3451,3452,3453,3454,3455,3456,3457,3458,3459,3460,3461,3462,3463,3464,3465,3466,3467,3468,3469,3470,3471,3472,3473,3474,3475,3476,3477,3478,3479,3480,3481,3482,3483,3484,3485,3486,3487,3488,3489,3490,3491,3492,3493,3494,3495,3496,3497,3498,3499,3500,3501,3502,3503,3504,3505,3506,3507,3508,3509,3510,3511,3512,3513,3514,3515,3516,3517,3518,3519,3520,3521,3522,3523,3524,3525,3526,3527,3528,3529,3530,3531,3532,3533,3534,3535,3536,3537,3538,3539,3540,3541,3542,3543,3544,3545,3546,3547,3548,3549,3550,3551,3552,3553,3554,3555,3556,3557,3558,3559,3560,3561,3562,3563,3564,3565,3566,3567,3568,3569,3570,3571,3572,3573,3574,3575,3576,3577,3578,3579,3580,3581,3582,3583,3584,3585,3586,3587,3588,3589,3590,3591,3592,3593,3594,3595,3596,3597,3598,3599,3600,3601,3602,3603,3604,3605,3606,3607,3608,3609,3610,3611,3612,3613,3614,3615,3616,3617,3618,3619,3620,3621,3622,3623,3624,3625,3626,3627,3628,3629,3630,3631,3632,3633,3634,3635,3636,3637,3638,3639,3640,3641,3642,3643,3644,3645,3646,3647,3648,3649,3650,3651,3652,3653,3654,3655,3656,3657,3658,3659,3660,3661,3662,3663,3664,3665,3666,3667,3668,3669,3670,3671,3672,3673,3674,3675,3676,3677,3678,3679,3680,3681,3682,3683,3684,3685,3686,3687,3688,3689,3690,3691,3692,3693,3694,3695,3696,3697,3698,3699,3700,3701,3702,3703,3704,3705,3706,3707,3708,3709,3710,3711,3712,3713,3714,3715,3716,3717,3718,3719,3720,3721,3722,3723,3724,3725,3726,3727,3728,3729,3730,3731,3732,3733,3734,3735,3736,3737,3738,3739,3740,3741,3742,3743,3744,3745,3746,3747,3748,3749,3750,3751,3752,3753,3754,3755,3756,3757,3758,3759,3760,3761,3762,3763,3764,3765,3766,3767,3768,3769,3770,3771,3772,3773,3774,3775,3776,3777,3778,3779,3780,3781,3782,3783,3784,3785,3786,3787,3788,3789,3790,3791,3792,3793,3794,3795,3796,3797,3798,3799,3800,3801,3802,3803,3804,3805,3806,3807,3808,3809,3810,3811,3812,3813,3814,3815,3816,3817,3818,3819,3820,3821,3822,3823,3824,3825,3826,3827,3828,3829,3830,3831,3832,3833,3834,3835,3836,3837,3838,3839,3840,3841,3842,3843,3844,3845,3846,3847,3848,3849,3850,3851,3852,3853,3854,3855,3856,3857,3858,3859,3860,3861,3862,3863,3864,3865,3866,3867,3868,3869,3870,3871,3872,3873,3874,3875,3876,3877,3878,3879,3880,3881,3882,3883,3884,3885,3886,3887,3888,3889,3890,3891,3892,3893,3894,3895,3896,3897,3898,3899,3900,3901,3902,3903,3904,3905,3906,3907,3908,3909,3910,3911,3912,3913,3914,3915,3916,3917,3918,3919,3920,3921,3922,3923,3924,3925,3926,3927,3928,3929,3930,3931,3932,3933,3934,3935,3936,3937,3938,3939,3940,3941,3942,3943,3944,3945,3946,3947,3948,3949,3950,3951,3952,3953,3954,3955,3956,3957,3958,3959,3960,3961,3962,3963,3964,3965,3966,3967,3968,3969,3970,3971,3972,3973,3974,3975,3976,3977,3978,3979,3980,3981,3982,3983,3984,3985,3986,3987,3988,3989,3990,3991,3992,3993,3994,3995,3996,3997,3998,3999,4000,4001,4002,4003,4004,4005,4006,4007,4008,4009,4010,4011,4012,4013,4014,4015,4016,4017,4018,4019,4020,4021,4022,4023,4024,4025,4026,4027,4028,4029,4030,4031,4032,4033,4034,4035,4036,4037,4038,4039,4040,4041,4042,4043,4044,4045,4046,4047,4048,4049,4050,4051,4052,4053,4054,4055,4056,4057,4058,4059,4060,4061,4062,4063,4064,4065,4066,4067,4068,4069,4070,4071,4072,4073,4074,4075,4076,4077,4078,4079,4080,4081,4082,4083,4084,4085,4086,4087,4088,4089,4090,4091,4092,4093,4094,4095,4096,4097,4098,4099,4100,4101,4102,4103,4104,4105,4106,4107,4108,4109,4110,4111,4112,4113,4114,4115,4116,4117,4118,4119,4120,4121,4122,4123,4124,4125,4126,4127,4128,4129,4130,4131,4132,4133,4134,4135,4136,4137,4138,4139,4140,4141,4142,4143,4144,4145,4146,4147,4148,4149,4150,4151,4152,4153,4154,4155,4156,4157,4158,4159,4160,4161,4162,4163,4164,4165,4166,4167,4168,4169,4170,4171,4172,4173,4174,4175,4176,4177,4178,4179,4180,4181,4182,4183,4184,4185,4186,4187,4188,4189,4190,4191,4192,4193,4194,4195,4196,4197,4198,4199,4200,4201,4202,4203,4204,4205,4206,4207,4208,4209,4210,4211,4212,4213,4214,4215,4216,4217,4218,4219,4220,4221,4222,4223,4224,4225,4226,4227,4228,4229,4230,4231,4232,4233,4234,4235,4236,4237,4238,4239,4240,4241,4242,4243,4244,4245,4246,4247,4248,4249,4250,4251,4252,4253,4254,4255,4256,4257,4258,4259,4260,4261,4262,4263,4264,4265,4266,4267,4268,4269,4270,4271,4272,4273,4274,4275,4276,4277,4278,4279,4280,4281,4282,4283,4284,4285,4286,4287,4288,4289,4290,4291,4292,4293,4294,4295,4296,4297,4298,4299,4300,4301,4302,4303,4304,4305,4306,4307,4308,4309,4310,4311,4312,4313,4314,4315,4316,4317,4318,4319,4320,4321,4322,4323,4324,4325,4326,4327,4328,4329,4330,4331,4332,4333,4334,4335,4336,4337,4338,4339,4340,4341,4342,4343,4344,4345,4346,4347,4348,4349,4350,4351,4352,4353,4354,4355,4356,4357,4358,4359,4360,4361,4362,4363,4364,4365,4366,4367,4368,4369,4370,4371,4372,4373,4374,4375,4376,4377,4378,4379,4380,4381,4382,4383,4384,4385,4386,4387,4388,4389,4390,4391,4392,4393,4394,4395,4396,4397,4398,4399,4400,4401,4402,4403,4404,4405,4406,4407,4408,4409,4410,4411,4412,4413,4414,4415,4416,4417,4418,4419,4420,4421,4422,4423,4424,4425,4426,4427,4428,4429,4430,4431,4432,4433,4434,4435,4436,4437,4438,4439,4440,4441,4442,4443,4444,4445,4446,4447,4448,4449,4450,4451,4452,4453,4454,4455,4456,4457,4458,4459,4460,4461,4462,4463,4464,4465,4466,4467,4468,4469,4470,4471,4472,4473,4474,4475,4476,4477,4478,4479,4480,4481,4482,4483,4484,4485,4486,4487,4488,4489,4490,4491,4492,4493,4494,4495,4496,4497,4498,4499,4500,4501,4502,4503,4504,4505,4506,4507,4508,4509,4510,4511,4512,4513,4514,4515,4516,4517,4518,4519,4520,4521,4522,4523,4524,4525,4526,4527,4528,4529,4530,4531,4532,4533,4534,4535,4536,4537,4538,4539,4540,4541,4542,4543,4544,4545,4546,4547,4548,4549,4550,4551,4552,4553,4554,4555,4556,4557,4558,4559,4560,4561,4562,4563,4564,4565,4566,4567,4568,4569,4570,4571,4572,4573,4574,4575,4576,4577,4578,4579,4580,4581,4582,4583,4584,4585,4586,4587,4588,4589,4590,4591,4592,4593,4594,4595,4596,4597,4598,4599,4600,4601,4602,4603,4604,4605,4606,4607,4608,4609,4610,4611,4612,4613,4614,4615,4616,4617,4618,4619,4620,4621,4622,4623,4624,4625,4626,4627,4628,4629,4630,4631,4632,4633,4634,4635,4636,4637,4638,4639,4640,4641,4642,4643,4644,4645,4646,4647,4648,4649,4650,4651,4652,4653,4654,4655,4656,4657,4658,4659,4660,4661,4662,4663,4664,4665,4666,4667,4668,4669,4670,4671,4672,4673,4674,4675,4676,4677,4678,4679,4680,4681,4682,4683,4684,4685,4686,4687,4688,4689,4690,4691,4692,4693,4694,4695,4696,4697,4698,4699,4700,4701,4702,4703,4704,4705,4706,4707,4708,4709,4710,4711,4712,4713,4714,4715,4716,4717,4718,4719,4720,4721,4722,4723,4724,4725,4726,4727,4728,4729,4730,4731,4732,4733,4734,4735,4736,4737,4738,4739,4740,4741,4742,4743,4744,4745,4746,4747,4748,4749,4750,4751,4752,4753,4754,4755,4756,4757,4758,4759,4760,4761,4762,4763,4764,4765,4766,4767,4768,4769,4770,4771,4772,4773,4774,4775,4776,4777,4778,4779,4780,4781,4782,4783,4784,4785,4786,4787,4788,4789,4790,4791,4792,4793,4794,4795,4796,4797,4798,4799,4800,4801,4802,4803,4804,4805,4806,4807,4808,4809,4810,4811,4812,4813,4814,4815,4816,4817,4818,4819,4820,4821,4822,4823,4824,4825,4826,4827,4828,4829,4830,4831,4832,4833,4834,4835,4836,4837,4838,4839,4840,4841,4842,4843,4844,4845,4846,4847,4848,4849,4850,4851,4852,4853,4854,4855,4856,4857,4858,4859,4860,4861,4862,4863,4864,4865,4866,4867,4868,4869,4870,4871,4872,4873,4874,4875,4876,4877,4878,4879,4880,4881,4882,4883,4884,4885,4886,4887,4888,4889,4890,4891,4892,4893,4894,4895,4896,4897,4898,4899,4900,4901,4902,4903,4904,4905,4906,4907,4908,4909,4910,4911,4912,4913,4914,4915,4916,4917,4918,4919,4920,4921,4922,4923,4924,4925,4926,4927,4928,4929,4930,4931,4932,4933,4934,4935,4936,4937,4938,4939,4940,4941,4942,4943,4944,4945,4946,4947,4948,4949,4950,4951,4952,4953,4954,4955,4956,4957,4958,4959,4960,4961,4962,4963,4964,4965,4966,4967,4968,4969,4970,4971,4972,4973,4974,4975,4976,4977,4978,4979,4980,4981,4982,4983,4984,4985,4986,4987,4988,4989,4990,4991,4992,4993,4994,4995,4996,4997,4998,4999
-0.046633437,0.06907479,-0.019154929,0.17050004,-0.20330316,-0.18477404,0.22177844,0.06217571,-0.34750617,-0.20548415,-0.1740674,-0.17499287,-0.16531175,-0.08583057,-0.10901885,-0.106564544,-0.028555967,0.008623734,0.013200202,0.048899263,0.030182075,-0.0023105887,-0.0312349,-0.047949594,-0.061427243,-0.069497384,-0.093258,-0.09162124,-0.09670612,-0.10355249,-0.11075851,-0.11431447,-0.10864216,-0.09292738,-0.09524482,-0.09707945,-0.09874721,-0.10034597,-0.113254406,-0.103667825,-0.0984321,-0.08509537,-0.084183395,-0.081754245,-0.068975374,-0.07007401,-0.070548564,-0.08054616,-0.071603015,-0.06984312,-0.06814904,-0.0601681,-0.056972075,-0.051882952,-0.06392202,-0.08462856,-0.10477171,-0.10204464,-0.09095438,-0.07580872,-0.07365314,-0.07143401,-0.07917243,-0.08969749,-0.07824201,-0.073562175,-0.03926254,-0.008707125,0.013918702,0.022353007,0.04076051,0.016335204,-0.0051967897,-0.017591191,-0.01994892,-0.021143503,-0.00918095,0.009733999,0.02856717,0.038206343,0.02878638,0.010336015,0.016090427,0.025502313,0.05418943,0.082031,0.10770831,0.13318872,0.12395995,0.13727862,0.14595175,0.16016883,0.18466197,0.20679112,0.240159,0.25422975,0.27187186,0.29553893,0.30366108,0.31663102,0.32417437,0.355319,0.37957636,0.40421745,0.41619772,0.42330232,0.4135235,0.38192558,0.34296653,0.29327732,0.24623616,0.18005143,0.11319813,0.05821829,0.012087314,-0.024133649,-0.068783686,-0.106832735,-0.1300149,-0.14868483,-0.15555379,-0.16742758,-0.16796431,-0.16719815,-0.1628298,-0.15693118,-0.14758855,-0.13455364,-0.12621033,-0.117384024,-0.11397056,-0.11127927,-0.10779859,-0.11278689,-0.116666034,-0.11873136,-0.12739657,-0.1335325,-0.15459204,-0.16037802,-0.17458442,-0.17886452,-0.18340763,-0.17828283,-0.16609359,-0.16763519,-0.16590795,-0.15564506,-0.14228868,-0.15853794,-0.1414785,-0.13009514,-0.11363976,-0.09545787,-0.071198836,-0.061204407,-0.034230053,-0.03778359,-0.058683474,-0.04093414,-0.03103703,-0.025852654,-0.022922399,0.0028319405,0.0021631285,0.01366842,0.0034714697,-0.026245458,-0.022541564,-0.035966143,-0.015656224,-0.007905552,0.0061311675,0.009157034,0.0073544895,-0.01811307,-0.041219443,-0.053759247,-0.04658323,-0.02496279,-0.027728822,-0.030357862,-0.047632802,-0.06293599,-0.08438609,-0.083218455,-0.07901958,-0.06589753,-0.061610498,-0.05939188,-0.050873745,-0.05421168,-0.059954617,-0.06567469,-0.057251822,-0.052753422,-0.032688852,-0.03452156,-0.026590623,-0.009207948,-0.010781266,0.0039184,0.00011850496,-0.01665338,-0.033350784,-0.04362538,-0.036553647,-0.026038375,-0.031343516,-0.012278208,0.00476844,0.012706725,0.032872923,0.019928716,0.012894262,0.0064455452,0.0042681876,0.022813981,0.04629102,0.059676338,0.07251071,0.072292544,0.0775477,0.105039835,0.12565045,0.13796419,0.14412169,0.15550733,0.16573003,0.18604966,0.21252167,0.24595824,0.27495152,0.303024,0.32848185,0.35072497,0.3780548,0.398877,0.4074824,0.40992275,0.3953929,0.36100686,0.31777424,0.27698213,0.24123083,0.1985975,0.16420569,0.12697515,0.087844804,0.06227602,0.030096278,0.002346667,-0.022893868,-0.04017286,-0.06039263,-0.072957225,-0.079921044,-0.07475707,-0.07227938,-0.08784061,-0.09707776,-0.101896666,-0.089012064,-0.09602658,-0.11175165,-0.12299282,-0.11500617,-0.12873176,-0.15190038,-0.1474636,-0.15097873,-0.16054222,-0.16976449,-0.19298156,-0.20199224,-0.1971138,-0.19178371,-0.16995177,-0.16850932,-0.17507046,-0.16247784,-0.15850502,-0.13909525,-0.1453677,-0.14006862,-0.11832311,-0.10701246,-0.09932586,-0.089247935,-0.080865555,-0.08132333,-0.079152875,-0.10671057,-0.11335313,-0.11439049,-0.11995932,-0.09789249,-0.07744408,-0.06679721,-0.07147085,-0.061011076,-0.09863197,-0.10712702,-0.102411926,-0.08984484,-0.07557723,-0.054737788,-0.038837492,-0.030752612,-0.023380129,-0.050306775,-0.07017403,-0.0757272,-0.059183132,-0.041215315,-0.033151593,-0.021079332,-0.01601912,-0.018883774,-0.014955533,-0.02999699,-0.03421513,-0.041568346,-0.044925857,-0.04445224,-0.02845163,-0.016457899,-0.026798774,-0.026022978,-0.012610367,-0.0013656903,0.020416042,0.0344715,0.01895425,0.0033586726,0.011320347,0.023273345,0.009974053,0.010225321,0.048173495,0.054860286,0.07431228,0.06627822,0.060220595,0.054318633,0.061339065,0.098193645,0.12519582,0.1412656,0.16276866,0.16243835,0.18774346,0.20300105,0.22017597,0.23429751,0.24271475,0.2591123,0.265525,0.29294655,0.31887054,0.33142713,0.3448233,0.34209248,0.34793216,0.36468148,0.39376867,0.41861624,0.42787725,0.42001683,0.38941962,0.35771748,0.312394,0.2649186,0.22506796,0.18435165,0.14079712,0.093184344,0.042995036,-0.012607096,-0.043489378,-0.06220553,-0.07150821,-0.069159225,-0.08739436,-0.109437324,-0.1132969,-0.1068157,-0.087991126,-0.07392577,-0.0824751,-0.095138535,-0.101319134,-0.085812524,-0.083313465,-0.10545127,-0.114459455,-0.12609698,-0.13258637,-0.14684796,-0.15831052,-0.16570878,-0.16927774,-0.18258809,-0.19115072,-0.1904306,-0.1867863,-0.176701,-0.16295479,-0.15459591,-0.15748668,-0.15258443,-0.13570058,-0.120049685,-0.11185679,-0.096373014,-0.078373164,-0.05870954,-0.04692801,-0.03967837,-0.023584176,-0.0151891215,-0.0125179235,-0.009438059,-0.005042534,0.0016846826,0.002127641,-0.0014426623,0.0030260708,0.006206738,-0.008179459,-0.02503844,-0.03785882,-0.05666481,-0.07015469,-0.08078648,-0.07834871,-0.08468637,-0.09518589,-0.10215552,-0.092865385,-0.08377283,-0.077028744,-0.07587606,-0.0710106,-0.063008554,-0.056068353,-0.05177202,-0.036986895,-0.038914386,-0.05436799,-0.047915064,-0.033131916,-0.030495476,-0.011941088,-0.029518673,-0.05171953,-0.06981604,-0.08319467,-0.07145873,-0.06679454,-0.058051657,-0.044374075,-0.027500708,-0.023781057,-0.014626902,-0.0076133185,0.001467188,0.0077015767,0.015000644,0.0141099505,0.04229424,0.067326896,0.07342653,0.0896237,0.100873485,0.114829935,0.14939916,0.16968375,0.17069104,0.18577497,0.17822006,0.20397241,0.21568072,0.24077931,0.2928397,0.3324435,0.3666105,0.36788565,0.3675543,0.3634411,0.35437733,0.3439354,0.31141943,0.27287868,0.23252931,0.18823045,0.153484,0.12158307,0.082016505,0.04225473,0.011008929,-0.0121190185,-0.034646403,-0.055459637,-0.080184564,-0.10033229,-0.10064659,-0.09472755,-0.0920872,-0.10177019,-0.10827568,-0.10564654,-0.09498132,-0.092825666,-0.10203411,-0.10791603,-0.119985566,-0.12700512,-0.12638389,-0.121419735,-0.12866141,-0.14193144,-0.1667465,-0.18468967,-0.18167189,-0.18260479,-0.17325144,-0.16881831,-0.16644645,-0.17284973,-0.15967919,-0.16941412,-0.1706272,-0.15885766,-0.12552814,-0.09649257,-0.091530144,-0.08180128,-0.07046336,-0.049269695,-0.05078577,-0.058929265,-0.057149023,-0.053154245,-0.053522363,-0.05645511,-0.052201223,-0.059171323,-0.06078764,-0.08146596,-0.096852735,-0.11131487,-0.11099823,-0.10394088,-0.09203279,-0.08013119,-0.08463276,-0.08456156,-0.0983301,-0.10277997,-0.10566987,-0.08982768,-0.07520603,-0.0635397,-0.06059426,-0.067821056,-0.076963685,-0.089514315,-0.086161874,-0.071648054,-0.050139673,-0.04127183,-0.03652164,-0.03935641,-0.047907513,-0.07346838,-0.0787236,-0.06656943,-0.064265236,-0.044203565,-0.019043481,-0.0038716523,0.02798117,0.040771466,0.03884631,0.04821158,0.060869806,0.080886334,0.08978946,0.11997579,0.13608569,0.1341386,0.14122404,0.11418244,0.10671494,0.110026926,0.13486288,0.16526824,0.17096889,0.18805651,0.20074384,0.20954107,0.22483936,0.24113743,0.2632616,0.28189155,0.28333253,0.29271823,0.3151793,0.34071198,0.34802714,0.34216785,0.33353165,0.32933074,0.33869615,0.35734895,0.37098137,0.37873435,0.37187403,0.34795615,0.3162344,0.27840778,0.23410654,0.19141199,0.1498754,0.10644797,0.05915174,0.012209951,-0.03780846,-0.066100776,-0.07501325,-0.07339593,-0.068969354,-0.08705194,-0.10903032,-0.11949272,-0.10769625,-0.08204796,-0.06338012,-0.06723835,-0.07517186,-0.07552142,-0.06171652,-0.052236658,-0.07727926,-0.08921032,-0.10112329,-0.10842719,-0.13067804,-0.14862034,-0.15627411,-0.17352675,-0.18586749,-0.2084316,-0.20457055,-0.20631292,-0.19893582,-0.19775699,-0.19322042,-0.18729807,-0.17843439,-0.16775234,-0.16043904,-0.1441391,-0.13312925,-0.117190436,-0.10458739,-0.092718475,-0.08337834,-0.076212816,-0.07910494,-0.08189101,-0.075241044,-0.0664501,-0.0583624,-0.066288546,-0.06618658,-0.07531973,-0.088144004,-0.09211337,-0.08136741,-0.068107866,-0.06767196,-0.060337257,-0.07090726,-0.08188843,-0.10070897,-0.1033048,-0.098720446,-0.08459577,-0.07677186,-0.070705466,-0.07005586,-0.08593658,-0.09894549,-0.115893126,-0.1081213,-0.09669018,-0.07940194,-0.06628149,-0.056098178,-0.05336468,-0.061856706,-0.054967247,-0.04997054,-0.0349112,-0.014276725,-0.0002954041,-0.006095038,-0.005460701,-0.020661969,-0.04583371,-0.035990648,-0.04287765,-0.024708668,-0.0064898664,0.014634762,0.02423616,0.041347858,0.028015932,0.0029621571,-0.0040016347,-0.00718617,0.0077446187,0.010546059,0.029687792,0.045138333,0.04781997,0.041878197,0.021772796,0.023175217,0.024869613,0.043720596,0.06940336,0.10463305,0.13659129,0.15539797,0.17050809,0.18867512,0.21913505,0.25367683,0.2808522,0.3028472,0.31233302,0.3199003,0.32801387,0.33282688,0.3436592,0.36317664,0.39808795,0.4246629,0.4465541,0.44731122,0.44149268,0.4207614,0.39457384,0.36223194,0.3160504,0.2704346,0.21472028,0.15756305,0.10884062,0.062972635,0.02076383,-0.01280782,-0.041083254,-0.06444639,-0.09068086,-0.10586837,-0.12134783,-0.124160714,-0.12208624,-0.114526615,-0.108873025,-0.10874762,-0.10630763,-0.10289575,-0.09352135,-0.085595235,-0.0846723,-0.09681946,-0.112283595,-0.110331364,-0.118427485,-0.130437,-0.14647004,-0.15725668,-0.16405103,-0.18004444,-0.19519018,-0.19835019,-0.19585384,-0.19300212,-0.19711159,-0.19847983,-0.17942423,-0.1711071,-0.16116962,-0.14429353,-0.13488276,-0.124269746,-0.12237528,-0.12504232,-0.1179865,-0.108072005,-0.09168113,-0.0821418,-0.066496566,-0.0607941,-0.048721675,-0.051559746,-0.06395026,-0.07425087,-0.06908033,-0.048747506,-0.03699076,-0.035700906,-0.040603306,-0.050606772,-0.06762711,-0.07373826,-0.06373659,-0.048789717,-0.042771187,-0.03916,-0.04265185,-0.04912419,-0.077374816,-0.08692624,-0.07847187,-0.064610355,-0.061608706,-0.053948008,-0.042965993,-0.02961192,-0.021472393,-0.045279175,-0.03192391,-0.025682302,-0.011874552,0.0033760143,0.016142944,0.021672435,0.017623479,0.03412169,0.031699058,0.044572454,0.03707022,0.008339133,-0.012970798,-0.016746888,-0.0009220308,-0.00535294,-0.006244698,0.017473895,0.022501577,0.045290433,0.05092823,0.038041543,0.036340374,0.02159131,0.03794142,0.06171481,0.07634403,0.09201286,0.09020404,0.095279485,0.12311895,0.122504935,0.13026173,0.14187719,0.15676844,0.18088308,0.19443552,0.22865394,0.26167318,0.28199565,0.30713114,0.31892,0.3373595,0.3580531,0.3752672,0.38136733,0.36860815,0.3385453,0.29478517,0.24542098,0.21029696,0.17613184,0.146593,0.11221448,0.07276681,0.037720807,0.0017346557,-0.02425239,-0.049581453,-0.062850125,-0.075235076,-0.08674714,-0.09735992,-0.10726033,-0.10429656,-0.09842302,-0.10023805,-0.108664304,-0.11002939,-0.10872435,-0.101634376,-0.109100774,-0.115387686,-0.11769575,-0.12096966,-0.13254979,-0.14341855,-0.15570514,-0.16045105,-0.16169153,-0.16663226,-0.17086421,-0.1650224,-0.16368452,-0.15652213,-0.1652376,-0.1575437,-0.1618701,-0.15086561,-0.14080384,-0.12013582,-0.100107834,-0.094588466,-0.08135272,-0.06640308,-0.045925714,-0.054130998,-0.03656868,-0.024158908,-2.8819044e-05,0.0109146675,0.023515062,0.035464842,0.0498175,0.032498166,0.006526645,-0.0035668798,-0.0055917217,-0.005519163,-0.010603412,-0.0024493202,-0.009731461,-0.025311774,-0.036958728,-0.053923447,-0.060185075,-0.06698755,-0.065829,-0.058716368,-0.049531683,-0.048691094,-0.048152395,-0.04984266,-0.05008461,-0.048471734,-0.04284995,-0.037949007,-0.034915116,-0.035471965,-0.037239775,-0.03971479,-0.050473392,-0.054662373,-0.055663735,-0.047261987,-0.037438627,-0.03892028,-0.05461858,-0.069865346,-0.078367844,-0.07727913,-0.061278753,-0.053407874,-0.038342223,-0.026675045,-0.019258926,-0.00855383,0.013126968,0.030614106,0.04322346,0.061824985,0.0825474,0.09653111,0.102725126,0.12065906,0.14219706,0.15999144,0.16015556,0.16026232,0.17011221,0.18326853,0.18081732,0.17746972,0.1742671,0.17736578,0.18154603,0.18925506,0.22105536,0.25207964,0.28774503,0.29609445,0.29667214,0.29261646,0.28864685,0.28466916,0.2713417,0.26036978,0.22673264,0.19381887,0.15465882,0.121822074,0.09038451,0.05766993,0.034937564,0.008310291,-0.01966219,-0.049534436,-0.06583035,-0.07329419,-0.0713551,-0.07003528,-0.076521195,-0.07787252,-0.07741418,-0.07280899,-0.07472758,-0.07561905,-0.081464715,-0.08894753,-0.105480835,-0.11030551,-0.110795036,-0.11369781,-0.12916197,-0.14182802,-0.14460404,-0.14979532,-0.15135288,-0.16576797,-0.16187319,-0.1585699,-0.1499527,-0.14797251,-0.13963072,-0.130931,-0.120270535,-0.09996144,-0.09554696,-0.086116515,-0.08286825,-0.078031786,-0.083788276,-0.07311164,-0.061614804,-0.040230855,-0.025532644,-0.033931565,-0.02401898,-0.009593223,-0.014538222,-0.017581481,-0.0028980938,0.012109952,0.012894417,0.00897539,0.016689198,0.013943909,0.023340376,-0.01178312,-0.020949114,-0.016315846,-0.029376645,-0.037734263,-0.034474082,-0.048799686,-0.0613935,-0.07745885,-0.098876625,-0.11617363,-0.11706686,-0.10997078,-0.09355758,-0.08825831,-0.089889675,-0.09013546,-0.07903473,-0.07897627,-0.07879073,-0.06466209,-0.052747216,-0.03205114,-0.042792812,-0.041696593,-0.03295699,-0.044998337,-0.04799362,-0.05592266,-0.047079276,-0.043364584,-0.048848204,-0.06758152,-0.09462047,-0.110056475,-0.11464385,-0.10320413,-0.09238577,-0.07406476,-0.050974086,-0.022531413,-0.0003629265,0.0019363664,0.0041712,-0.0042175977,0.012914276,0.048452176,0.07891606,0.0990724,0.11845868,0.13571131,0.17070714,0.18718344,0.18238938,0.18281771,0.18544865,0.20438327,0.21576507,0.23911501,0.26552212,0.27862585,0.28548187,0.2963253,0.31355837,0.339826,0.35803753,0.37485433,0.38115367,0.3678222,0.34554964,0.3082709,0.26815253,0.21570133,0.16863619,0.12902819,0.09752018,0.0681235,0.02115253,-0.023466162,-0.051916026,-0.0756793,-0.086513035,-0.09769603,-0.11452108,-0.11332286,-0.14099552,-0.170161,-0.16204718,-0.1682181,-0.14648648,-0.1394571,-0.12075056,-0.11153311,-0.09152007,-0.11235346,-0.14552945,-0.13590126,-0.13132963,-0.11833349,-0.123989485,-0.11990758,-0.13443916,-0.11897501,-0.15140262,-0.17533736,-0.17263351,-0.16281846,-0.14415208,-0.13593149,-0.11126399,-0.111353576,-0.099385545,-0.113682695,-0.11040592,-0.10183097,-0.08054318,-0.057698157,-0.044010993,-0.027052974,-0.033684295,-0.036971554,-0.047382496,-0.050388474,-0.050050966,-0.03850401,-0.028052311,-0.02384126,-0.035467394,-0.048966795,-0.0626197,-0.06629981,-0.054005742,-0.04330044,-0.03110985,-0.037314385,-0.05095882,-0.07781643,-0.08855799,-0.09588372,-0.084119946,-0.06419811,-0.058505625,-0.055903945,-0.066413835,-0.076932296,-0.09807341,-0.09523763,-0.08130026,-0.05961093,-0.061188955,-0.04472874,-0.035405193,-0.032002334,-0.033060238,-0.058383632,-0.06597933,-0.05176514,-0.023535423,-0.022887094,-0.008779061,0.022144495,0.014031967,0.043372523,0.036945168,0.01505594,0.008286096,0.01570022,0.04732597,0.040300053,0.05015337,0.078040555,0.08976904,0.09974635,0.09932946,0.08571495,0.114318416,0.113336034,0.15069312,0.1802813,0.20635638,0.22464068,0.22621608,0.236272,0.23685148,0.24975248,0.25621822,0.27410656,0.2944506,0.3078349,0.32105777,0.3482127,0.3681253,0.3916174,0.4231399,0.46001026,0.49691406,0.52608436,0.53775644,0.5213003,0.48439807,0.44023758,0.38137433,0.31500405,0.25525773,0.19396783,0.13643233,0.08102618,0.026315957,-0.013340678,-0.048727203,-0.07582995,-0.10335559,-0.12028582,-0.1350869,-0.14404634,-0.14806364,-0.14792061,-0.15095647,-0.15383662,-0.15529051,-0.15841687,-0.1581538,-0.15856014,-0.15801714,-0.16282147,-0.16558117,-0.17097107,-0.16723359,-0.16380933,-0.16997233,-0.17289703,-0.1810175,-0.1895107,-0.18796001,-0.18688817,-0.18274881,-0.16404183,-0.16065328,-0.15982151,-0.15038465,-0.16282822,-0.16537642,-0.1619435,-0.14377327,-0.117544554,-0.11586823,-0.10936619,-0.095929876,-0.07503637,-0.07147451,-0.07780067,-0.072014354,-0.058942556,-0.050218094,-0.053088777,-0.036447834,-0.034831084,-0.036932796,-0.049022347,-0.057000272,-0.056543007,-0.059797946,-0.057977173,-0.056216013,-0.05289158,-0.06507226,-0.07616998,-0.08726746,-0.08689844,-0.07662986,-0.066963196,-0.061977446,-0.06624665,-0.08102207,-0.10559779,-0.09980051,-0.10129205,-0.10580523,-0.07997857,-0.052055765,-0.054089382,-0.041365936,-0.04628583,-0.094418555,-0.099799685,-0.09928809,-0.07014392,-0.0780922,-0.0541413,-0.03197113,-0.01502251,0.011979424,0.025748909,0.0013360633,-0.0024405974,-0.019596977,0.0028555645,-0.0058438466,0.024322422,0.046641532,0.053682607,0.07144095,0.070448466,0.06941662,0.080949,0.09784598,0.1255808,0.16236392,0.18846345,0.20155343,0.18998939,0.18922141,0.19467954,0.20091379,0.20907451,0.2180354,0.2382996,0.24521667,0.2545365,0.25820085,0.26638323,0.28371885,0.30919304,0.3332592,0.34449008,0.35158867,0.34357372,0.33550256,0.32351685,0.30884072,0.28200608,0.24835925,0.2085737,0.17068231,0.13143711,0.08994939,0.06467009,0.026002305,-0.012207024,-0.04255668,-0.06229883,-0.06982009,-0.08317222,-0.094809644,-0.10934607,-0.10755104,-0.116089776,-0.11037272,-0.10260102,-0.09500403,-0.09491146,-0.10847506,-0.11653539,-0.1215701,-0.11238427,-0.12582327,-0.1391558,-0.1498552,-0.14663978,-0.15785477,-0.16726969,-0.17038387,-0.17028515,-0.1616751,-0.16915329,-0.1762062,-0.17363918,-0.16150331,-0.14412156,-0.13710895,-0.13210237,-0.12566714,-0.11548054,-0.111611106,-0.11805946,-0.12935454,-0.12115375,-0.104024105,-0.07875676,-0.07606977,-0.06328413,-0.06572165,-0.07854061,-0.088972606,-0.097131,-0.086761005,-0.084971696,-0.07361477,-0.073636755,-0.07585947,-0.08599248,-0.091815375,-0.0888549,-0.08877422,-0.07909647,-0.067326434,-0.050758924,-0.0431568,-0.03468833,-0.03255726,-0.024911104,-0.031105073,-0.029229658,-0.021559203,-0.019018454,-0.027199624,-0.045337223,-0.06369614,-0.07549239,-0.07511748,-0.06498231,-0.035975486,-0.019043585,0.0043970537,0.020380812,0.035193633,0.047414444,0.049727987,0.048259966,0.050301526,0.05640881,0.05303342,0.06281077,0.062013198,0.06015032,0.046737246,0.037058197,0.0357158,0.033410896,0.037378963,0.04926813,0.06586595,0.08255983,0.10009689,0.11045968,0.120934844,0.13501953,0.1566902,0.18332607,0.20621614,0.22699805,0.25173032,0.27367136,0.2963097,0.32659903,0.35167807,0.37611672,0.38705242,0.39854062,0.4039498,0.3990126,0.38003495,0.3580494,0.31709388,0.26448083,0.21910238,0.16547868,0.11851096,0.070910975,0.028485112,-0.0067360983,-0.03654464,-0.06677686,-0.09800394,-0.11844485,-0.13242522,-0.13851413,-0.14450984,-0.1400107,-0.14175603,-0.13817795,-0.1392223,-0.13678652,-0.13387379,-0.13536258,-0.13577828,-0.13804634,-0.13618833,-0.1353103,-0.13417313,-0.14149669,-0.14327377,-0.14917952,-0.15130281,-0.14867239,-0.15459675,-0.14550525,-0.15516709,-0.16280144,-0.16984417,-0.16252685,-0.14845724,-0.13391091,-0.11808228,-0.10931917,-0.09543383,-0.099196285,-0.0958107,-0.093286924,-0.073004104,-0.06410081,-0.050744493,-0.039405268,-0.032558322,-0.031159926,-0.03308703,-0.026886933,-0.026314484,-0.022026436,-0.018137028,-0.009353766,-0.005961239,-0.004635141,-0.007912587,-0.011659368,-0.017468529,-0.026290655,-0.031932943,-0.033779126,-0.037286114,-0.043000754,-0.040437,-0.04303284,-0.039632786,-0.047314037,-0.049086023,-0.049559385,-0.0654288,-0.0781275,-0.07794828,-0.08267238,-0.09420674,-0.07344374,-0.06409401,-0.061755408,-0.06384312,-0.08851576,-0.11536699,-0.102386355,-0.090110414,-0.08196512,-0.09921576,-0.07038857,-0.059213478,-0.038924254,-0.039834626,-0.063768096,-0.103901185,-0.08581429,-0.07495738,-0.069684274,-0.07162674,-0.040585183,-0.02930536,-0.0023320839,0.004415174,0.0044484288,-0.0035685152,-0.013858974,0.013944506,0.047023565,0.07290518,0.09707552,0.10888236,0.11109783,0.13535668,0.15134457,0.17866954,0.19419517,0.21348658,0.2329597,0.25261497,0.27616942,0.28908283,0.31409305,0.33736902,0.36797875,0.39068285,0.41813964,0.4439499,0.4531436,0.45462343,0.44067192,0.4110856,0.3706592,0.31878465,0.26535088,0.21163201,0.16326715,0.1140847,0.06490517,0.019978119,-0.02005471,-0.048170824,-0.068759464,-0.08455507,-0.1007012,-0.11730674,-0.13018396,-0.13480589,-0.1272146,-0.11975935,-0.108418174,-0.104993954,-0.107794225,-0.10707118,-0.10419882,-0.10223213,-0.110767394,-0.12061547,-0.13193895,-0.15003358,-0.16213197,-0.17354694,-0.18264702,-0.19364373,-0.20043424,-0.2045588,-0.20104456,-0.19881853,-0.19162191,-0.18423417,-0.18347049,-0.18010627,-0.1637777,-0.1441358,-0.13805968,-0.11595135,-0.096545056,-0.07770991,-0.050551686,-0.06634893,-0.0729871,-0.0760158,-0.07398727,-0.064750955,-0.048681024,-0.03586617,-0.03089547,-0.03215368,-0.05031379,-0.059520718,-0.06816342,-0.046042535,-0.028540907,-0.023092283,-0.030893004,-0.033226825,-0.046943795,-0.06212942,-0.058662213,-0.064188264,-0.045974515,-0.031032825,-0.025953328,-0.0181484,-0.013055402,-0.040072523,-0.052830964,-0.057300396,-0.04024469,-0.047532573,-0.06110033,-0.03247367,-0.040151548,-0.025179505,-0.052885354,-0.06902844,-0.079459496,-0.08509055,-0.07664001,-0.05939629,-0.038346354,-0.036393784,-0.016826794,-0.020226823,-0.003922041,0.00033226106,0.0029062906,0.0012681774,-0.011965542,-0.009820297,-0.007873025,-0.008240361,-0.0057660444,0.009431615,0.024987988,0.03611852,0.049683206,0.04741307,0.05491613,0.065363675,0.08072429,0.11811209,0.13596693,0.1420091,0.13461575,0.13678785,0.15487064,0.15569082,0.1713862,0.1823894,0.19200327,0.1985007,0.20429495,0.22192442,0.24501494,0.2630837,0.2757234,0.28156155,0.28553298,0.28852764,0.28207102,0.2692787,0.2509287,0.22378382,0.19479398,0.16050768,0.12064444,0.086362064,0.052505054,0.020878289,-0.0036714734,-0.027242975,-0.03876844,-0.0549591,-0.07112285,-0.08710591,-0.09987033,-0.10403856,-0.10740435,-0.10262345,-0.10090079,-0.103901885,-0.10727829,-0.111429244,-0.110802904,-0.11750475,-0.123640835,-0.13975073,-0.14374599,-0.16081682,-0.1608417,-0.16203347,-0.18334728,-0.1916232,-0.1747523,-0.1626369,-0.15228747,-0.15119557,-0.1715734,-0.16586652,-0.16757701,-0.15820616,-0.1418973,-0.13408083,-0.11302901,-0.11690059,-0.09112454,-0.08475003,-0.09042614,-0.09638914,-0.0886243,-0.07225614,-0.06557698,-0.06585597,-0.068123564,-0.067125656,-0.0843641,-0.088593766,-0.0951119,-0.08354456,-0.08579378,-0.078825735,-0.068684235,-0.060868554,-0.06521782,-0.066914186,-0.052251507,-0.04439105,-0.035303872,-0.031634636,-0.015079076,-0.014004351,-0.03212487,-0.041744333,-0.05971225,-0.06323387,-0.040879156,-0.030874886,-0.041077234,-0.044166703,-0.06996142,-0.09121769,-0.06585317,-0.060676947,-0.043461937,-0.013037256,0.019074887,0.030741025,0.056407694,0.06075553,0.016354727,0.046543792,0.05283049,0.07144412,0.0556785,0.079548866,0.10264805,0.13678768,0.13005078,0.12296038,0.111616455,0.1118021,0.15899801,0.16396862,0.18819222,0.23124067,0.20268527,0.2085809,0.19520988,0.1847281,0.19128375,0.19512507,0.2274522,0.24004796,0.26033732,0.27738047,0.29740575,0.31640282,0.3306117,0.3513857,0.37403414,0.39972442,0.4047109,0.3928473,0.36690947,0.31133077,0.24192326,0.17608242,0.12255733,0.06275984,0.00093614677,-0.046801865,-0.08406514,-0.114339225,-0.14866622,-0.17171662,-0.18521562,-0.19304614,-0.19231293,-0.19627544,-0.18637036,-0.17911056,-0.16620395,-0.15249449,-0.14739554,-0.1370449,-0.13565929,-0.1285404,-0.12528427,-0.123457916,-0.12371877,-0.13243896,-0.14395013,-0.16104929,-0.16728212,-0.1796869,-0.17910378,-0.17619057,-0.16590008,-0.16837955,-0.15527874,-0.14397098,-0.14399596,-0.14731333,-0.14060909,-0.1208177,-0.10175116,-0.07572489,-0.06229465,-0.043274555,-0.052392107,-0.059638087,-0.067593016,-0.052814245,-0.042939488,-0.027430512,-0.010054899,-0.005263689,-0.0033224386,-0.008169333,0.0012111169,0.0026186258,0.0073111616,0.011108409,0.02151125,0.022938773,0.014087574,0.008239576,8.348469e-05,-0.0028837638,-0.012373871,-0.016027194,-0.023855044,-0.041187797,-0.061018944,-0.06764886,-0.076710574,-0.072306946,-0.063653335,-0.06687275,-0.06292409,-0.08037802,-0.09362736,-0.10610001,-0.09808164,-0.081538156,-0.06909355,-0.068868496,-0.07834523,-0.07183364,-0.08684102,-0.07836289,-0.08493702,-0.077745914,-0.06188739,-0.033566438,-0.026171783,-0.019354068,-0.03009216,-0.079595424,-0.08191076,-0.08540625,-0.08252254,-0.06998808,-0.045848534,-0.020327576,0.0109947035,0.0045907944,-0.0037768194,0.0037127433,0.007211604,0.04398788,0.07499126,0.10335774,0.13941655,0.14073616,0.14996478,0.15849118,0.1602038,0.17088673,0.18130675,0.2073127,0.22421409,0.2423888,0.27078307,0.289416,0.30241877,0.3069293,0.31838328,0.3425864,0.368963,0.3840644,0.3867671,0.37213653,0.3454064,0.3162629,0.27318397,0.23540676,0.20474571,0.17791477,0.14782435,0.10435164,0.06294766,0.021372387,-0.011992126,-0.04535713,-0.059496,-0.073376276,-0.07830069,-0.10060017,-0.11967773,-0.13006303,-0.1220871,-0.12476224,-0.1250102,-0.118162334,-0.12441637,-0.11226025,-0.11762911,-0.11958435,-0.123445876,-0.12360945,-0.11547215,-0.117234066,-0.12581694,-0.13488875,-0.12359089,-0.13495234,-0.15071943,-0.15661772,-0.14659919,-0.13943446,-0.14721377,-0.15393779,-0.1495809,-0.13608833,-0.14410123,-0.14499916,-0.14198877,-0.13057607,-0.12469236,-0.11589749,-0.09947763,-0.09272426,-0.092394106,-0.10000064,-0.09243992,-0.0791479,-0.0672451,-0.053710625,-0.037899163,-0.035782762,-0.029329836,-0.027577786,-0.029511688,-0.028461913,-0.024985429,-0.011980055,-0.0015291616,0.0077826763,0.00025217392,0.00051419,0.0011466058,0.010178645,0.022540024,0.03228433,0.036097698,0.016804747,0.0007039589,-0.01420157,-0.015896615,-0.023815118,-0.009907212,-0.004067885,-0.015092316,-0.033791326,-0.040901404,-0.053121276,-0.061258245,-0.053815763,-0.031941067,-0.0332424,-0.037174407,-0.023958314,-0.029726172,-0.0144398585,-0.025387835,-0.03714603,-0.02681274,-0.0260803,-0.019729609,-0.03826865,-0.041842956,-0.025952341,-0.03811432,-0.025160816,-0.045095507,-0.05886631,-0.06736372,-0.07269381,-0.056105915,-0.041893423,-0.030541502,-0.019964391,-0.005913083,-0.0013934937,0.011074168,0.027034456,0.04647798,0.06507162,0.08146579,0.099496305,0.1059784,0.10711086,0.12630743,0.14438547,0.15634245,0.15958098,0.1735348,0.19787836,0.21476327,0.21046945,0.20185328,0.19613361,0.20464559,0.21384525,0.22373615,0.25894502,0.2851893,0.30498955,0.3010173,0.29361793,0.2814454,0.27291566,0.25505617,0.23617221,0.20384732,0.1651109,0.12705603,0.08579255,0.04601457,0.014535125,-0.010655332,-0.03021386,-0.053406343,-0.08055169,-0.10341393,-0.11622134,-0.119141,-0.11737695,-0.1119618,-0.114537075,-0.11007278,-0.10253994,-0.09244818,-0.090581045,-0.092645526,-0.0942407,-0.10145359,-0.10216279,-0.106576405,-0.11113185,-0.11855786,-0.12352217,-0.1326077,-0.13812277,-0.1508532,-0.15808153,-0.16267453,-0.16491145,-0.16166796,-0.15620174,-0.145993,-0.14932978,-0.14697759,-0.13643861,-0.107493475,-0.10165059,-0.0930618,-0.08416029,-0.0734453,-0.068349555,-0.06335598,-0.0437475,-0.03738684,-0.021179691,-0.03939317,-0.04956032,-0.037922993,-0.04654512,-0.034955643,-0.027299182,-0.015200493,-0.02135295,-0.0029775838,-0.029923419,-0.037919022,-0.047810268,-0.04089084,-0.023614446,-0.025102248,-0.017576082,-0.013521804,-0.011158103,-0.028021444,-0.048011538,-0.057035215,-0.051157676,-0.06042238,-0.06370522,-0.0672025,-0.07384203,-0.078042276,-0.080755115,-0.08440086,-0.097932786,-0.09704583,-0.090224944,-0.06313799,-0.063800216,-0.043700382,-0.035485774,-0.04258142,-0.037148137,-0.013216745,-0.012315824,0.009979323,-0.003447463,-0.04175578,-0.026201585,-0.032640696,-0.037870374,-0.070923276,-0.03704759,-0.029243339,-0.019365828,-0.032651808,-0.061262216,-0.0894963,-0.06973261,-0.046247568,-0.037158806,-0.016263561,-0.0031609666,0.018375726,0.040210467,0.039357804,0.021409096,0.037070014,0.039887574,0.06507229,0.08693396,0.11321743,0.13456152,0.14519744,0.15858454,0.17441809,0.18706596,0.20872454,0.23011377,0.25359097,0.27036735,0.27621657,0.27647543,0.2851964,0.29767197,0.31248322,0.3466815,0.37850192,0.40931112,0.4218721,0.42603946,0.4214864,0.40510863,0.388073,0.35436615,0.3144116,0.25972936,0.19854267,0.14003094,0.082656585,0.030423557,-0.019067079,-0.057899397,-0.096599236,-0.12798426,-0.1497671,-0.16376126,-0.17068349,-0.18028195,-0.18187171,-0.17611869,-0.17594162,-0.17281367,-0.16971065,-0.15506975,-0.14146343,-0.12912461,-0.12386318,-0.115368105,-0.10344763,-0.11666042,-0.13370563,-0.14049014,-0.14312789,-0.14312263,-0.14374335,-0.15754956,-0.15941328,-0.15633564,-0.1653589,-0.17482719,-0.16338985,-0.14828023,-0.12999228,-0.11609422,-0.10989134,-0.0937255,-0.09704373,-0.09596391,-0.08642015,-0.0753493,-0.057106968,-0.037298575,-0.025022786,-0.007702362,-0.0058709234,-0.014479293,-0.01958745,-0.01541012,-0.006896688,-0.00023102287,0.014306807,0.023977283,0.028715713,0.032955114,0.015971089,0.0062109176,0.0013442927,0.0046221544,0.01160064,0.019576281,0.012380198,0.0011116895,-0.0178672,-0.035749763,-0.0320663,-0.026478892,-0.0099385455,-0.020630868,-0.03178139,-0.05380598,-0.06798424,-0.07509873,-0.074250326,-0.07281489,-0.081416294,-0.092153065,-0.09871279,-0.08992064,-0.08937964,-0.0845156,-0.081567094,-0.07501322,-0.07013823,-0.06570255,-0.04664416,-0.03462805,-0.018020572,-0.016754001,-0.030509649,-0.031555276,-0.013617129,-0.009743767,0.0050685136,-0.00025659363,-0.031957995,-0.034995932,-0.04057563,-0.034831606,-0.012695828,0.017500037,0.03861425,0.050620526,0.05494681,0.041761145,0.03305226,0.0319355,0.058351256,0.08750088,0.10155156,0.11370117,0.1168552,0.13677992,0.14844207,0.15247427,0.16527368,0.17600937,0.19435154,0.21414636,0.23928511,0.26553434,0.2837947,0.30355266,0.32225516,0.34798023,0.36792657,0.38334408,0.3928062,0.39017496,0.37627733,0.34238634,0.306858,0.26178053,0.21338747,0.16209845,0.11461227,0.0723819,0.026254278,-0.026092889,-0.06502675,-0.09716239,-0.121899664,-0.14258571,-0.15775527,-0.17415807,-0.18669997,-0.1830872,-0.17548332,-0.16567034,-0.1620888,-0.15719749,-0.1495093,-0.14097677,-0.13763386,-0.13863733,-0.13810009,-0.1295097,-0.12821077,-0.12747547,-0.13519779,-0.1454654,-0.16409495,-0.174526,-0.17762518,-0.1699334,-0.16526622,-0.16435762,-0.17026706,-0.15853794,-0.14202556,-0.14157784,-0.13462354,-0.12243798,-0.103990756,-0.09595605,-0.084196866,-0.07750459,-0.05939554,-0.054250002,-0.057056632,-0.051193863,-0.042698786,-0.029504862,-0.024515888,-0.016458677,-0.009221448,-0.003875053,-0.008055239,-0.008066765,-0.007421187,-0.0033252165,0.011385871,0.017070554,0.02567988,0.011712477,-0.0038523898,-0.021335505,-0.029673265,-0.025843048,-0.013449556,-0.019320475,-0.030704532,-0.047461074,-0.068653546,-0.086976945,-0.08978163,-0.087863766,-0.06986004,-0.06729884,-0.071986884,-0.07466226,-0.05997747,-0.065736145,-0.059363764,-0.054084737,-0.03800098,-0.024599738,-0.03475466,-0.020640135,-0.00821762,-0.0030786467,-0.010833522,-0.022019869,-0.029323064,-0.02979359,-0.025651619,-0.025591936,-0.02486308,-0.03582105,-0.043618996,-0.04455743,-0.039322067,-0.01695366,0.009686803,0.03666293,0.05283776,0.06075823,0.07769985,0.08850917,0.087916635,0.11326114,0.13931869,0.1602015,0.16940798,0.1711922,0.18017685,0.20268714,0.19973819,0.20035207,0.19939353,0.20691977,0.22693722,0.22632253,0.25249535,0.28616804,0.3158965,0.33717617,0.34192994,0.34103596,0.3341787,0.32155523,0.2969141,0.2651723,0.22761568,0.19011556,0.15700692,0.123447396,0.08570187,0.04957989,0.017745724,-0.009965648,-0.03749011,-0.05897062,-0.07639651,-0.09027632,-0.10736183,-0.11696544,-0.114383206,-0.11914622,-0.12519346,-0.12841544,-0.12829581,-0.12679549,-0.12465933,-0.12776604,-0.13521066,-0.13696381,-0.14108737,-0.14693257,-0.15447985,-0.15911546,-0.16681038,-0.17108104,-0.1775153,-0.181018,-0.1831207,-0.18135016,-0.17510806,-0.1775483,-0.1631132,-0.1611963,-0.15947343,-0.15673882,-0.14618455,-0.13458474,-0.12696283,-0.11563976,-0.110366516,-0.100993104,-0.103468925,-0.08852041,-0.0771656,-0.06703355,-0.064327314,-0.06506107,-0.0682414,-0.078579575,-0.08281454,-0.08375811,-0.06862777,-0.062362563,-0.0568638,-0.053746972,-0.045434467,-0.060807418,-0.07086196,-0.06574593,-0.059831537,-0.040772643,-0.023022814,-0.018630378,-0.016119638,-0.025305439,-0.053692736,-0.06635384,-0.07379838,-0.06930945,-0.05506725,-0.044269476,-0.036213648,-0.045646876,-0.057814565,-0.08251249,-0.09018002,-0.08773911,-0.06972542,-0.058038414,-0.044523887,-0.043343194,-0.05422762,-0.061450325,-0.067901716,-0.046825573,-0.023120891,-0.0030311137,0.002756059,-0.007323707,-0.030418713,-0.03946573,-0.028457057,-0.0264183,-0.00867631,0.01792594,0.038604364,0.07427879,0.09220108,0.07992381,0.076708615,0.08189603,0.10956818,0.12899399,0.15448897,0.18586163,0.17433982,0.18988913,0.17741409,0.17724149,0.1910211,0.20052728,0.22203803,0.22629695,0.24496442,0.26599762,0.2842814,0.3011021,0.3106182,0.31768668,0.32964802,0.34132686,0.35768473,0.35975036,0.353365,0.33447686,0.3056597,0.2692894,0.23071197,0.19520256,0.15261394,0.11301089,0.07376753,0.03568776,-0.000637066,-0.037157897,-0.06297175,-0.08965338,-0.108109385,-0.12140196,-0.12046913,-0.121333346,-0.12231191,-0.124104485,-0.12828997,-0.13223183,-0.1333126,-0.1288042,-0.12572964,-0.12731469,-0.131319,-0.13401818,-0.13645813,-0.14053164,-0.14947663,-0.15273075,-0.16102284,-0.16444375,-0.16561657,-0.16558428,-0.1676483,-0.16757369,-0.15509018,-0.14261481,-0.13534781,-0.13261376,-0.1314692,-0.12825508,-0.12662421,-0.11450574,-0.09849532,-0.08376034,-0.08083087,-0.07558351,-0.07169052,-0.07242356,-0.072723165,-0.06651741,-0.05747409,-0.05965402,-0.05798411,-0.058916442,-0.051493935,-0.05346961,-0.05622196,-0.058055006,-0.05875058,-0.054684725,-0.053004846,-0.050863232,-0.05889059,-0.071445875,-0.0930773,-0.09279233,-0.09443997,-0.08146855,-0.06313439,-0.061290536,-0.057273787,-0.05789579,-0.07934613,-0.103298254,-0.11013357,-0.108374596,-0.09207433,-0.08213153,-0.07191251,-0.059714977,-0.062122513,-0.06358049,-0.08342668,-0.09055423,-0.10463949,-0.10074274,-0.10427231,-0.089200564,-0.08580521,-0.08293413,-0.064645216,-0.05009152,-0.031630635,-0.013122743,-0.02565899,-0.03858215,-0.023145346,-0.014521919,-0.009240424,-0.0027395808,0.028666155,0.03505254,0.077658236,0.095027834,0.091025546,0.09549825,0.10133517,0.14127347,0.1737092,0.2046094,0.23693635,0.24471095,0.28536108,0.2844276,0.30184358,0.29841268,0.31588224,0.3381597,0.3378811,0.3738324,0.3905048,0.4056599,0.40441865,0.3968308,0.3976015,0.41024548,0.41956866,0.42670622,0.4180531,0.403518,0.37706313,0.3437605,0.30667412,0.2655889,0.22470684,0.18635052,0.13765919,0.09042483,0.041462913,0.0030790553,-0.022793844,-0.045676026,-0.064027004,-0.083219595,-0.10106901,-0.11295287,-0.11502104,-0.106981054,-0.10153308,-0.09929895,-0.110995136,-0.11718859,-0.115783,-0.10971263,-0.10603911,-0.11106137,-0.11796192,-0.1235566,-0.12692644,-0.1360642,-0.14279203,-0.15074067,-0.15139356,-0.16414796,-0.16788647,-0.16798115,-0.16421911,-0.15862782,-0.15822302,-0.15626203,-0.14995664,-0.13853936,-0.14301637,-0.1361749,-0.12768751,-0.1037974,-0.089601286,-0.08065899,-0.06642946,-0.04525293,-0.02759004,-0.030498642,-0.029869992,-0.025935804,-0.011622271,-0.008912677,-0.013235774,-0.008813353,-0.012433864,-0.010229741,-0.018485805,-0.020970324,-0.027930012,-0.023471508,-0.024297822,-0.026912738,-0.03476533,-0.042797435,-0.050390292,-0.059324928,-0.064064644,-0.07144481,-0.064354174,-0.06704539,-0.06887649,-0.07946163,-0.07974991,-0.07978307,-0.07782248,-0.069520175,-0.06724461,-0.055961862,-0.051375452,-0.040854756,-0.035303924,-0.02408923,-0.021617614,-0.028529566,-0.029116055,-0.03021669,-0.029317481,-0.03047115,-0.038866438,-0.059800256,-0.07161654,-0.076028205,-0.07300489,-0.060939245,-0.037581462,-0.0106769055,0.007802406,0.01568485,0.009938487,0.0013334153,-0.0019156307,0.0063034915,0.037497316,0.058802832,0.07418634,0.08177824,0.0864016,0.10464275,0.114032805,0.11858009,0.12732778,0.14302313,0.15664239,0.17576395,0.20126994,0.22695963,0.2533183,0.2747777,0.30541858,0.3289321,0.355302,0.37167776,0.38274986,0.3846538,0.37277898,0.35194942,0.31557173,0.28095064,0.23646256,0.18853344,0.14034869,0.10058185,0.061826028,0.020002184,-0.013551113,-0.044836603,-0.068776496,-0.089712024,-0.10030568,-0.112624146,-0.11601003,-0.1158006,-0.11227749,-0.10969866,-0.110097334,-0.108745456,-0.106153384,-0.10348265,-0.10510289,-0.10804858,-0.10930386,-0.11564555,-0.12551811,-0.1340477,-0.1451992,-0.15573072,-0.16255996,-0.17326336,-0.17938167,-0.18140449,-0.18818521,-0.18754555,-0.19210303,-0.18991913,-0.18379223,-0.17561415,-0.1675592,-0.1521914,-0.13509914,-0.1250074,-0.10960344,-0.09856408,-0.08473273,-0.07686301,-0.075873435,-0.08582823,-0.07979405,-0.072078265,-0.08007319,-0.06312468,-0.04884439,-0.044478353,-0.042868514,-0.048789613,-0.074415065,-0.08338236,-0.0890062,-0.07782655,-0.074177586,-0.067501076,-0.053610314,-0.056965586,-0.047202926,-0.06176372,-0.07568525,-0.086664766,-0.08595092,-0.08802163,-0.08172826,-0.07160429,-0.07170737,-0.07318674,-0.07781414,-0.068755254,-0.06684825,-0.0562501,-0.05544367,-0.064860895,-0.08712512,-0.08607321,-0.07526363,-0.08212218,-0.07236476,-0.04475745,-0.023786796,0.0044481433,0.017135583,0.011094027,-0.0015880653,-0.004354589,0.0024384882,0.002715068,0.010966692,0.042433128,0.05389247,0.06575447,0.06321074,0.04568181,0.041939702,0.043465875,0.057973456,0.07281011,0.09805738,0.12580751,0.13759182,0.14544138,0.16205898,0.18122181,0.20397367,0.23194762,0.2626045,0.28156072,0.2951476,0.3044474,0.31418943,0.33116102,0.35696366,0.3893315,0.42055598,0.4436922,0.45654112,0.4635509,0.45274165,0.43600112,0.40803134,0.3608042,0.30554843,0.24225593,0.18072799,0.11560347,0.054899327,-0.0015200236,-0.05415914,-0.09501263,-0.12858726,-0.15409708,-0.17599401,-0.19372374,-0.20731701,-0.2096949,-0.1985455,-0.18698424,-0.17482838,-0.17073946,-0.16683279,-0.16158065,-0.15147492,-0.14649418,-0.14122266,-0.13522765,-0.13599119,-0.12957455,-0.1315447,-0.14975236,-0.17131688,-0.1895901,-0.19723159,-0.19376862,-0.19285147,-0.18450785,-0.18037133,-0.17019236,-0.17095573,-0.17393272,-0.17324674,-0.163538,-0.1465032,-0.12941022,-0.10520742,-0.09176039,-0.07604659,-0.065216444,-0.050640393,-0.045798067,-0.042923287,-0.037318148,-0.026520297,-0.017241534,-0.006896195,0.008259046,0.014352652,0.022948714,0.025613837,0.025534088,0.019121407,0.015766859,0.0132627655,0.019205855,0.023207407,0.028530333,0.027203146,0.018575802,0.011589425,0.0017315147,-0.0010730932,-0.00767365,-0.014302166,-0.031160187,-0.03881231,-0.04717421,-0.05535982,-0.055360544,-0.059045646,-0.067285806,-0.066468686,-0.05709069,-0.045852583,-0.040777836,-0.051279325,-0.053930145,-0.0696708,-0.0630617,-0.05787949,-0.07499162,-0.07379013,-0.05008734,-0.05041054,-0.030014226,-0.047372863,-0.08049884,-0.09381971,-0.09635165,-0.0765389,-0.08188161,-0.06488268,-0.042206917,-0.03763629,-0.02046667,-0.014004689,-0.018875284,-0.014641595,-0.009484164,0.012126333,0.047232825,0.06491658,0.082462534,0.101008125,0.110300325,0.12789394,0.1418413,0.1584078,0.17044939,0.19116068,0.2061727,0.22565024,0.24476646,0.2601694,0.28074816,0.3094352,0.3462543,0.37629777,0.40004694,0.4166581,0.4218715,0.4185936,0.40968773,0.3966374,0.36749825,0.33002046,0.28992218,0.24644722,0.20327571,0.16237646,0.11508959,0.07514858,0.03266976,-0.0035648027,-0.034693964,-0.062098112,-0.08268564,-0.10834959,-0.11955784,-0.13172272,-0.13597332,-0.13864279,-0.14144237,-0.14475493,-0.14541899,-0.14781189,-0.15044849,-0.15191913,-0.15863012,-0.15171075,-0.15235521,-0.15204263,-0.15986796,-0.16685696,-0.17354694,-0.17767593,-0.16923475,-0.17149459,-0.17073563,-0.16853403,-0.16260415,-0.15626279,-0.16405816,-0.17384045,-0.16609529,-0.15387061,-0.14176387,-0.1317031,-0.12098882,-0.102299266,-0.10068765,-0.100190595,-0.110439226,-0.11101895,-0.10593374,-0.09750823,-0.07950306,-0.06785275,-0.057938498,-0.05334339,-0.044374075,-0.044407483,-0.04180892,-0.0444316,-0.045768317,-0.052204467,-0.050325338,-0.052669574,-0.053419974,-0.047762424,-0.0478348,-0.045118842,-0.044311017,-0.05520572,-0.06482585,-0.06067162,-0.055718202,-0.039550595,-0.040423788,-0.036464293,-0.03777585,-0.04816665,-0.050752822,-0.0704143,-0.06638437,-0.06926893,-0.056387894,-0.05561903,-0.049879577,-0.04950422,-0.054976437,-0.05197711,-0.053091057,-0.03182482,-0.0133111365,0.0042160596,0.014244139,0.0068572476,-0.018450707,-0.036801722,-0.03458545,-0.040161204,-0.018179396,-0.0026926708,0.012359611,0.036737204,0.047832947,0.036249902,0.04779824,0.053261716,0.07468065,0.1010105,0.12305246,0.1429417,0.15425482,0.15617248,0.16406457,0.16986033,0.18204202,0.18370311,0.18091162,0.19341893,0.19725168,0.20801459,0.2299585,0.24184383,0.252769,0.25800437,0.2756641,0.29827604,0.3197235,0.32911497,0.32478696,0.3117238,0.2901183,0.2697015,0.24487567,0.22103694,0.18463586,0.15299143,0.124575675,0.094839975,0.051440895,0.011841991,-0.019680906,-0.048097383,-0.059614666,-0.07793109,-0.08541097,-0.09617014,-0.10812273,-0.118967846,-0.12094199,-0.114252105,-0.108381316,-0.10340246,-0.11275093,-0.11340088,-0.11435509,-0.10708185,-0.12541308,-0.12906505,-0.13969627,-0.14871043,-0.14931309,-0.15947725,-0.16096677,-0.16662538,-0.16633186,-0.17587492,-0.17492488,-0.16726008,-0.16469756,-0.15315522,-0.14543378,-0.137484,-0.13668619,-0.13032965,-0.12128155,-0.10379745,-0.09523921,-0.08930954,-0.08119366,-0.07297672,-0.062101766,-0.052655756,-0.0385524,-0.0388742,-0.040903844,-0.046840265,-0.044365324,-0.0432142,-0.03237128,-0.018492814,-0.005646108,0.0008131474,0.0030780432,0.0065924544,-0.009063896,-0.02029515,-0.023617871,-0.012823864,-0.007780814,-0.007326796,-0.008628907,-0.012023459,-0.01906334,-0.03679845,-0.05457855,-0.06278748,-0.066656426,-0.0681833,-0.06408268,-0.07250118,-0.07889601,-0.08875337,-0.0889976,-0.091305226,-0.087870516,-0.07805682,-0.07095471,-0.06354957,-0.05656876,-0.046343826,-0.052233335,-0.05556711,-0.06500674,-0.061403234,-0.04535682,-0.03269516,-0.027233658,-0.04276558,-0.06253,-0.08180549,-0.08508351,-0.07020191,-0.052093357,-0.04264045,-0.030002987,-0.008549053,0.0030219173,0.0073699616,0.012729206,0.022825092,0.047663946,0.07629205,0.10470437,0.12824218,0.1488864,0.16830793,0.17938007,0.19145544,0.20033194,0.20925692,0.21922453,0.2345755,0.24666189,0.2532961,0.26893693,0.28580454,0.31259653,0.34148148,0.37898758,0.4111243,0.43742204,0.4583087,0.46440527,0.457055,0.4432094,0.4205471,0.38486245,0.34609455,0.2950044,0.24131691,0.18955487,0.14153847,0.097114034,0.05598719,0.02505297,-0.009951734,-0.040341523,-0.06854155,-0.090647765,-0.11269888,-0.12329266,-0.12606423,-0.12949777,-0.12871236,-0.13251142,-0.1367769,-0.14522135,-0.15011296,-0.14820096,-0.14467439,-0.13988306,-0.14650954,-0.15086953,-0.15151449,-0.15735036,-0.15932892,-0.16584216,-0.16982882,-0.167538,-0.16994458,-0.1747462,-0.17625104,-0.17731416,-0.17088154,-0.1694495,-0.16481306,-0.15651082,-0.14024201,-0.13687722,-0.13291529,-0.12581518,-0.11057962,-0.10193831,-0.090603344,-0.07953751,-0.07696986,-0.07220648,-0.071938805,-0.05723025,-0.054400597,-0.045608193,-0.0366679,-0.026623465,-0.028188134,-0.03252182,-0.035947267,-0.038081378,-0.038403828,-0.040769164,-0.03674391,-0.036773376,-0.037056316,-0.042143937,-0.038053676,-0.034453545,-0.02957537,-0.03007692,-0.028571308,-0.03257434,-0.042034827,-0.04759173,-0.056148022,-0.05612707,-0.05481196,-0.051068526,-0.05661144,-0.063219614,-0.081640385,-0.105271265,-0.10806878,-0.108934015,-0.107608095,-0.09012713,-0.06956903,-0.07273763,-0.0676088,-0.08174576,-0.10749526,-0.11382215,-0.10243784,-0.07242909,-0.08358317,-0.059287462,-0.0362476,-0.02660711,-0.00789644,-0.020954046,-0.06979668,-0.06612972,-0.05921631,-0.041723486,-0.04789466,-0.019453757,-0.000954559,0.01604523,0.022753857,0.037248332,0.043683577,0.046959102,0.060139757,0.11352485,0.14832631,0.1710471,0.20328353,0.18792917,0.23471542,0.25343695,0.26790193,0.282304,0.28035238,0.30077967,0.30127072,0.32266763,0.3561751,0.3788773,0.39898312,0.41160178,0.42542425,0.4484809,0.4657635,0.47958654,0.48145807,0.463289,0.42937973,0.381679,0.32927102,0.27488467,0.2212041,0.16727182,0.12047275,0.07246236,0.013771507,-0.032580752,-0.06684996,-0.07948896,-0.09664612,-0.11256163,-0.1308565,-0.14341216,-0.14758374,-0.14019874,-0.1238534,-0.11464006,-0.11335859,-0.11772643,-0.11654322,-0.1103329,-0.1044091,-0.11079055,-0.1214348,-0.12692499,-0.13436514,-0.14564855,-0.1621943,-0.16914958,-0.17677341,-0.19211732,-0.20535605,-0.20664403,-0.19800834,-0.19084331,-0.19233148,-0.18063053,-0.16248894,-0.15026733,-0.14320424,-0.14024372,-0.13703613,-0.12489601,-0.11462941,-0.102274165,-0.09030525,-0.083058484,-0.07655741,-0.06733498,-0.06978798,-0.07235025,-0.07242922,-0.06775673,-0.064895265,-0.06509389,-0.06106684,-0.06573173,-0.067712285,-0.07577995,-0.06755234,-0.06981147,-0.06466066,-0.07068838,-0.079179,-0.087104484,-0.101138085,-0.10734398,-0.104308195,-0.091121174,-0.08334491,-0.07210869,-0.06555907,-0.066150025,-0.08007047,-0.09440643,-0.090933844,-0.0864431,-0.06702605,-0.05718996,-0.046609428,-0.04701477,-0.05639314,-0.061881546,-0.06870874,-0.06470902,-0.06253273,-0.062307168,-0.058248952,-0.057325937,-0.04930726,-0.035960354,-0.012595571,0.012516282,0.035512842,0.05801333,0.078735925,0.08105565,0.0686731,0.06897232,0.07623323,0.061091587,0.057946768,0.08902656,0.09520031,0.119603604,0.105909735,0.096788235,0.103336595,0.10464135,0.13475625,0.16093543,0.17393525,0.18794602,0.19117516,0.20218858,0.21377759,0.22249371,0.23764868,0.24578445,0.25615937,0.25635245,0.2598505,0.27000913,0.28406283,0.2906202,0.29612178,0.2988129,0.2918771,0.28616318,0.27830076,0.27454436,0.2716391,0.25652516,0.229701,0.1944193,0.15940088,0.1207283,0.08713703,0.06286251,0.031991318,0.0021896858,-0.028800458,-0.059380066,-0.08825945,-0.11350365,-0.12104144,-0.1255155,-0.12662078,-0.12656464,-0.12671824,-0.1245821,-0.1257347,-0.12764224,-0.12820573,-0.13040538,-0.13603207,-0.13703722,-0.14041698,-0.14372104,-0.14472339,-0.14898072,-0.15195441,-0.1590039,-0.16579682,-0.17255771,-0.18500066,-0.18799733,-0.1788715,-0.17267731,-0.16520846,-0.147045,-0.13320035,-0.11144986,-0.10429043,-0.11285496,-0.10689151,-0.10085271,-0.08962535,-0.070607804,-0.054824702,-0.044809632,-0.03564356,-0.0393568,-0.044956125,-0.059116855,-0.060079888,-0.04830995,-0.031858385,-0.025081275,-0.021232262,-0.03138352,-0.051633526,-0.06390738,-0.07406619,-0.061925862,-0.056261595,-0.044056892,-0.04101171,-0.038935233,-0.046389516,-0.056512326,-0.06662673,-0.06960878,-0.06583663,-0.06125609,-0.049663614,-0.04980528,-0.048958924,-0.063984685,-0.07489305,-0.08296708,-0.07928339,-0.07964299,-0.07798516,-0.07909959,-0.0812204,-0.0841412,-0.08749713,-0.09269194,-0.0709342,-0.041808687,-0.022339204,-0.016783934,-0.019411441,-0.0562474,-0.057812247,-0.049881317,-0.031111278,-0.029138433,-0.012418157,-0.0021113704,0.032784764,0.05813337,0.0540798,0.02528417,0.02202217,0.047339786,0.049143963,0.07037414,0.11582643,0.12767515,0.13042901,0.1389814,0.13988656,0.14209454,0.14259578,0.17233303,0.19916004,0.21827814,0.24151583,0.25661927,0.28520125,0.2951571,0.29315042,0.31601885,0.33246806,0.3545277,0.363666,0.37351543,0.37935036,0.35790694,0.3273839,0.29000673,0.25605145,0.20939419,0.15832499,0.11757349,0.08306891,0.052729428,0.013583375,-0.02557462,-0.054554924,-0.07008091,-0.078063905,-0.08674439,-0.087457515,-0.08957854,-0.09717558,-0.10928595,-0.10979646,-0.09941527,-0.08834816,-0.079780184,-0.07884767,-0.083428256,-0.07728315,-0.07567279,-0.10142471,-0.11365785,-0.120117754,-0.11367571,-0.12313178,-0.14561382,-0.16209075,-0.16806795,-0.17046438,-0.18518266,-0.18236746,-0.17351618,-0.16295902,-0.15539134,-0.15510665,-0.14502266,-0.13722481,-0.12336213,-0.12015948,-0.117853746,-0.10314556,-0.09181921,-0.07443792,-0.0654936,-0.060648546,-0.058268946,-0.05708036,-0.061934844,-0.06968095,-0.06177093,-0.058124892,-0.046338532,-0.049164947,-0.04731022,-0.058774337,-0.06634449,-0.07363806,-0.064874835,-0.05682862,-0.06534435,-0.07930412,-0.09878384,-0.11440919,-0.120797314,-0.11533854,-0.10546217,-0.09398458,-0.08480267,-0.0821404,-0.06311401,-0.06245013,-0.052111246,-0.042163562,-0.015589973,-0.018924298,-0.018650107,0.008524566,0.0035504925,0.012553689,-0.0129492,-0.047532596,-0.062951624,-0.061754864,-0.069892675,-0.051024057,-0.031866327,-0.016135111,-0.012929081,-0.008694248,-0.026748022,-0.031651612,-0.026209814,-0.011024279,0.0068834675,0.016663343,0.035159755,0.04039416,0.039332572,0.03809422,0.036973674,0.050167028,0.074021414,0.10349129,0.13544029,0.16346127,0.17879523,0.2070354,0.2303133,0.24719375,0.25571957,0.26890445,0.289189,0.31168112,0.30706275,0.29788962,0.3046692,0.29764134,0.29904523,0.32037628,0.34460643,0.3617747,0.3810264,0.37334117,0.360838,0.34523556,0.32326844,0.28289378,0.2260966,0.17898999,0.1348872,0.09046211,0.042199537,-0.008926436,-0.045791782,-0.07381555,-0.09345373,-0.11410912,-0.13286243,-0.1361308,-0.13552481,-0.13846031,-0.13756733,-0.13719675,-0.132529,-0.1352369,-0.13395084,-0.12664238,-0.12525365,-0.12578762,-0.13225323,-0.13419957,-0.13845575,-0.14060555,-0.15120281,-0.1639512,-0.17688583,-0.19266783,-0.19492538,-0.19830018,-0.19647314,-0.1781012,-0.15881005,-0.14780608,-0.14628327,-0.13526691,-0.14951064,-0.14292167,-0.12179704,-0.091162965,-0.07518869,-0.056729842,-0.033242166,-0.018199049,0.017609045,0.0016768165,-0.00040921354,0.0065506324,0.016759342,0.021501774,0.014819261,0.025924684,0.026689915,0.020694543,0.019343393,-0.0016324571,-0.0015204907,0.002436645,0.0076193092,0.006408474,-0.0014655591,-0.0026922293,-0.015376762,-0.017281303,-0.023205858,-0.032756895,-0.019865172,-0.0068708574,-0.0068067615,-0.0061248923,-0.024340734,-0.040169872,-0.053425167,-0.060567755,-0.04604248,-0.05189531,-0.0522587,-0.041327827,-0.04501713,-0.029508444,-0.05391875,-0.057693068,-0.06099389,-0.06542558,-0.06669374,-0.08250047,-0.07900099,-0.0815367,-0.098220974,-0.094946735,-0.07366267,-0.05759777,-0.04481955,-0.0477937,-0.0680921,-0.10449025,-0.10633991,-0.07584503,-0.051468235,-0.0619276,-0.039306413,-0.019770365,0.02557173,0.060214914,0.06712803,0.043173797,0.030557381,0.04974406,0.053206444,0.055503763,0.07538734,0.105315454,0.10339565,0.12253477,0.12844543,0.12484922,0.1233067,0.108793885,0.14651547,0.18110214,0.22579879,0.24628253,0.2412854,0.25140467,0.2720086,0.28573936,0.291753,0.3073625,0.30653572,0.30611303,0.28485402,0.26558882,0.24384606,0.21685387,0.19382842,0.17081547,0.14405121,0.10450854,0.054159623,0.017982066,-0.006292023,-0.028944796,-0.05282951,-0.07257336,-0.091025144,-0.1059834,-0.11603521,-0.12656109,-0.12631531,-0.12871948,-0.1297968,-0.12760574,-0.13064326,-0.1320083,-0.13262005,-0.13661225,-0.13896908,-0.134782,-0.13620313,-0.13645148,-0.14626384,-0.15666886,-0.1653439,-0.17063263,-0.16834569,-0.16370046,-0.16466282,-0.16548282,-0.16985182,-0.17028397,-0.16638969,-0.16091849,-0.14274861,-0.115497984,-0.093034565,-0.07989747,-0.06317309,-0.062299352,-0.07136208,-0.07284933,-0.06462884,-0.063176,-0.044074155,-0.031198658,-0.027557665,-0.020430222,-0.03996419,-0.06205982,-0.07334372,-0.06433349,-0.054966237,-0.036470313,-0.019143324,-0.012033715,-0.011765493,-0.023338592,-0.025546558,-0.029972065,-0.021194724,-0.013400959,-0.0065778447,-0.012209491,-0.027068421,-0.03563915,-0.043330733,-0.049499653,-0.056210224,-0.0496577,-0.04219726,-0.032943573,-0.03127148,-0.041133825,-0.047459077,-0.0507893,-0.04261135,-0.035822608,-0.023665119,-0.022506673,-0.022665627,-0.038430076,-0.049386907,-0.04738501,-0.049304977,-0.025279323,-0.012713144,0.005974654,0.02523887,0.042897917,0.01964248,0.01383389,0.019233452,0.044850122,0.057388548,0.08323376,0.11085271,0.10525572,0.11959537,0.089652486,0.07348277,0.09197999,0.090348855,0.11304258,0.114322625,0.11707363,0.12433869,0.14449278,0.15827745,0.17794439,0.1802824,0.20384678,0.21770911,0.22729969,0.25090757,0.25745592,0.25286773,0.22884195,0.2073471,0.17105572,0.15516593,0.13027702,0.087645896,0.052103866,0.028447753,0.0063058278,-0.006430002,-0.036051214,-0.06791277,-0.090490215,-0.10600105,-0.103009194,-0.10117298,-0.09434429,-0.09486414,-0.09993359,-0.101747796,-0.10505727,-0.10547583,-0.10233306,-0.099937744,-0.104435235,-0.1169332,-0.12583593,-0.13781784,-0.15407594,-0.16624826,-0.16965024,-0.16745193,-0.16831449,-0.1731283,-0.17284498,-0.17390484,-0.1753229,-0.16924287,-0.15232131,-0.13475016,-0.11309766,-0.090187535,-0.068757854,-0.046722665,-0.044827547,-0.054803908,-0.061607566,-0.067045055,-0.06263927,-0.048775464,-0.0443085,-0.04178444,-0.0452069,-0.058960445,-0.07352061,-0.08521985,-0.07697918,-0.0671585,-0.05812388,-0.05650004,-0.057661265,-0.06264431,-0.07107833,-0.072996974,-0.06612593,-0.048378613,-0.043024976,-0.034393344,-0.03454238,-0.041351687,-0.06003448,-0.07343035,-0.07304858,-0.06992347,-0.058980927,-0.050436474,-0.03922321,-0.039734963,-0.051184647,-0.06833572,-0.082842425,-0.080753535,-0.075102136,-0.06222757,-0.05064823,-0.04651698,-0.05472943,-0.055613838,-0.05169438,-0.040426232,-0.017110953,0.01391268,0.043476183,0.06262113,0.07830493,0.08973092,0.095246725,0.09022008,0.0901667,0.087599166,0.09130018,0.099703625,0.10523786,0.10646764,0.10497097,0.09312549,0.07613879,0.07466421,0.07625779,0.094244346,0.12360513,0.14322588,0.1480335,0.14395358,0.15237737,0.16027127,0.16406208,0.17833644,0.18712641,0.2003757,0.20873442,0.21751583,0.24424963,0.2727469,0.29651567,0.2980864,0.29631862,0.29159775,0.29105547,0.28942955,0.28599268,0.26705483,0.23671271,0.19516206,0.15130402,0.10794478,0.085837565,0.058859557,0.030922927,-0.0009287286,-0.03547726,-0.06628912,-0.08664078,-0.08778664,-0.09049787,-0.07708225,-0.07328832,-0.07292854,-0.075734265,-0.07461234,-0.08284135,-0.08776888,-0.08467518,-0.07867874,-0.077956975,-0.0923002,-0.09766415,-0.102758884,-0.097620375,-0.11773695,-0.138536,-0.13626394,-0.13852046,-0.13486476,-0.13463403,-0.124991775,-0.12192638,-0.11197604,-0.114495195,-0.12345421,-0.12021928,-0.10796512,-0.08156388,-0.063163176,-0.047463957,-0.051102612,-0.04300587,-0.045578133,-0.04841584,-0.05125892,-0.041693036,-0.028101845,-0.029649043,-0.03256375,-0.0383105,-0.03301229,-0.03630866,-0.038668543,-0.044099543,-0.045721173,-0.055976428,-0.06458449,-0.06426861,-0.06489389,-0.07133583,-0.08032205,-0.07787759,-0.08271439,-0.07763011,-0.072877996,-0.07095398,-0.07339385,-0.08273668,-0.10336848,-0.11304,-0.10833817,-0.11724804,-0.11984131,-0.0978197,-0.09227079,-0.08847066,-0.090983376,-0.11054395,-0.13515347,-0.12288101,-0.09562991,-0.07147399,-0.06626757,-0.04392797,-0.026291614,-0.011726942,0.009871432,-0.0032411057,0.0042995475,0.0050477455,0.011528003,-0.0008377122,-0.023115076,-0.0005942317,-0.006281458,0.018563705,0.0063467147,-0.004568683,-0.01594098,-0.020281859,-0.009051409,0.0029708536,0.030333266,0.06364856,0.07736034,0.07799227,0.08271271,0.092017196,0.10270023,0.124818355,0.15610473,0.17990394,0.19446936,0.19949351,0.20910192,0.21755378,0.23725781,0.2516582,0.27477553,0.2911557,0.3031538,0.30679116,0.30544263,0.29748297,0.2767509,0.2470638,0.213796,0.18120927,0.14580865,0.11024063,0.07123823,0.030660078,-0.011717312,-0.042896185,-0.072125904,-0.091357484,-0.112028986,-0.13392314,-0.14889586,-0.15290652,-0.14731564,-0.14505415,-0.14080483,-0.13988172,-0.13684696,-0.13055629,-0.12550764,-0.12315962,-0.120436825,-0.11950388,-0.1214722,-0.1267883,-0.13231231,-0.14339665,-0.15424179,-0.16627991,-0.1665375,-0.17006244,-0.17697781,-0.177052,-0.16371582,-0.14198723,-0.1335367,-0.1347342,-0.14094993,-0.1449504,-0.15088524,-0.1512739,-0.13963771,-0.1211951,-0.10885825,-0.10334284,-0.09799299,-0.09861746,-0.09873984,-0.09834677,-0.08725121,-0.07364055,-0.06227671,-0.051334176,-0.046752,-0.045010667,-0.052056443,-0.057243463,-0.06033505,-0.053427916,-0.042411745,-0.031740032,-0.027849717,-0.034425173,-0.04423708,-0.058401056,-0.05914985,-0.055005465,-0.04659014,-0.03865284,-0.029635986,-0.027898913,-0.038591336,-0.056463752,-0.0726071,-0.07836491,-0.07003569,-0.050112598,-0.034034498,-0.026516637,-0.03683599,-0.05673026,-0.08416171,-0.08393344,-0.07880279,-0.07002617,-0.03989955,-0.02473499,-0.024788182,-0.026524398,-0.04246099,-0.065098405,-0.06086677,-0.04678297,-0.024508204,-0.005482014,0.01593264,0.033232242,0.04540297,0.068699524,0.05984586,0.07678893,0.07437157,0.0957348,0.09700034,0.10085174,0.12220248,0.11868609,0.1317134,0.11620352,0.100839786,0.09732265,0.103797644,0.11993711,0.13361901,0.14298798,0.14992498,0.15422446,0.16064951,0.16681793,0.17682548,0.19406796,0.21047133,0.23133819,0.24581997,0.2594287,0.26606923,0.2691944,0.27350855,0.28152964,0.29131618,0.3011675,0.30647638,0.30089602,0.28746796,0.26654693,0.25103197,0.23829149,0.22606821,0.20531218,0.17658287,0.14235237,0.10200684,0.06948908,0.043393187,0.026715355,0.006739285,-0.0158935,-0.04099001,-0.064177416,-0.07758481,-0.0873855,-0.08695537,-0.0899241,-0.08862388,-0.089372054,-0.08924739,-0.092526525,-0.0947684,-0.090505965,-0.08857603,-0.07644752,-0.07834311,-0.08049076,-0.08695542,-0.08343743,-0.09688705,-0.09927954,-0.09821084,-0.09727186,-0.09700996,-0.10333489,-0.10902321,-0.11238367,-0.11433326,-0.12673539,-0.12387786,-0.114717886,-0.10155,-0.095721595,-0.09235981,-0.07992558,-0.06687205,-0.052280713,-0.05313628,-0.047352146,-0.04096929,-0.02794281,-0.021587553,-0.025991956,-0.026900148,-0.03603696,-0.026166044,-0.030360872,-0.04106493,-0.046603687,-0.047126424,-0.047021024,-0.057466358,-0.06379557,-0.066297814,-0.06497478,-0.07712978,-0.0900513,-0.0962805,-0.09747905,-0.098633416,-0.09976818,-0.09735345,-0.0949011,-0.09491478,-0.09447949,-0.09755026,-0.10431741,-0.10208662,-0.09736501,-0.09122213,-0.0821943,-0.07218548,-0.08435444,-0.08504327,-0.065617606,-0.055343598,-0.037729304,-0.037933454,-0.07112361,-0.08700874,-0.087194644,-0.08703864,-0.092309475,-0.073476665,-0.045086652,-0.025156766,-0.009345408,-0.017855672,-0.044600133,-0.04827825,-0.03668246,-0.0047625275,0.020221261,0.043317616,0.05313508,0.053468563,0.058011826,0.062691435,0.06362071,0.072148755,0.08464983,0.09269577,0.108254716,0.12137113,0.12977201,0.13692465,0.14891344,0.16572623,0.17672442,0.18574736,0.1940554,0.19635206,0.19680862,0.19051194,0.17259267,0.1547924,0.13120817,0.104682,0.09066244,0.07651485,0.06216512,0.031842876,0.004480697,-0.02417176,-0.04191554,-0.051400505,-0.06425574,-0.0701887,-0.081007704,-0.08316199,-0.09417903,-0.0928166,-0.091357045,-0.07999573,-0.079325154,-0.08395045,-0.089320056,-0.10323575,-0.11699947,-0.12608662,-0.12749916,-0.13546681,-0.13363187,-0.14296941,-0.15694095,-0.15089405,-0.16949847,-0.18118306,-0.17011972,-0.1566888,-0.14726527,-0.1341612,-0.11608473,-0.10589609,-0.081819065,-0.092164874,-0.10511238,-0.08675628,-0.07769602,-0.07612455,-0.061862834,-0.039656613,-0.035462644,-0.03317545,-0.04536648,-0.08861508,-0.091890216,-0.09325572,-0.07003692,-0.055909734,-0.04628747,-0.028562456,-0.039068148,-0.045916706,-0.072162606,-0.082274534,-0.0911517,-0.08633884,-0.0793704,-0.061618574,-0.040424958,-0.037421573,-0.029342119,-0.013956376,0.011499732,0.033470687,0.054427795,0.07237967,0.06882548,0.08022827,0.07787604,0.06684405,0.06924874,0.07893101,0.088237785,0.09535287,0.08791944,0.06927584,0.057811443,0.05593805,0.06458564,0.0817047,0.10215555,0.11398143,0.10574541,0.089566246,0.08727822,0.08334598,0.09673084,0.1104677,0.12353478,0.12520103,0.1320604,0.13788998,0.14658612,0.15323652,0.16017854,0.16809154,0.16841365,0.17345345,0.17125276,0.17207518,0.15870728,0.13535465,0.10937083,0.08182194,0.057055194,0.027938258,0.004802552,-0.016537882,-0.029642295,-0.0508535,-0.07624303,-0.09365629,-0.103347115,-0.10379192,-0.10372832,-0.10518678,-0.10225912,-0.10697508,-0.111036,-0.10724302,-0.103403375,-0.090807915,-0.073837325,-0.06377033,-0.06294662,-0.061785888,-0.08345913,-0.11361966,-0.11272798,-0.101920344,-0.10067641,-0.10760391,-0.10860917,-0.12231557,-0.11011953,-0.11001945,-0.14080872,-0.1316917,-0.11542421,-0.086570665,-0.08711679,-0.062455297,-0.03860868,-0.030392362,0.0075226594,0.0101954155,0.023501718,0.04571675,0.048242446,0.057650823,0.03541606,0.0282165,0.022439506,-0.0022232588,-0.027918382,-0.11508354,-0.16433427,-0.13339016,-0.13319649,-0.17005122,-0.19031592,-0.24815394,-0.085759066,-0.30917898,-0.42602313,0.031029155,0.35197052,0.04202124,0.14019866
