0,1,2,3,4,5,6,7,8,9,10,11,12,13,14,15,16,17,18,19,20,21,22,23,24,25,26,27,28,29,30,31,32,33,34,35,36,37,38,39,40,41,42,43,44,45,46,47,48,49,50,51,52,53,54,55,56,57,58,59,60,61,62,63,64,65,66,67,68,69,70,71,72,73,74,75,76,77,78,79,80,81,82,83,84,85,86,87,88,89,90,91,92,93,94,95,96,97,98,99,100,101,102,103,104,105,106,107,108,109,110,111,112,113,114,115,116,117,118,119,120,121,122,123,124,125,126,127,128,129,130,131,132,133,134,135,136,137,138,139,140,141,142,143,144,145,146,147,148,149,150,151,152,153,154,155,156,157,158,159,160,161,162,163,164,165,166,167,168,169,170,171,172,173,174,175,176,177,178,179,180,181,182,183,184,185,186,187,188,189,190,191,192,193,194,195,196,197,198,199,200,201,202,203,204,205,206,207,208,209,210,211,212,213,214,215,216,217,218,219,220,221,222,223,224,225,226,227,228,229,230,231,232,233,234,235,236,237,238,239,240,241,242,243,244,245,246,247,248,249,250,251,252,253,254,255,256,257,258,259,260,261,262,263,264,265,266,267,268,269,270,271,272,273,274,275,276,277,278,279,280,281,282,283,284,285,286,287,288,289,290,291,292,293,294,295,296,297,298,299,300,301,302,303,304,305,306,307,308,309,310,311,312,313,314,315,316,317,318,319,320,321,322,323,324,325,326,327,328,329,330,331,332,333,334,335,336,337,338,339,340,341,342,343,344,345,346,347,348,349,350,351,352,353,354,355,356,357,358,359,360,361,362,363,364,365,366,367,368,369,370,371,372,373,374,375,376,377,378,379,380,381,382,383,384,385,386,387,388,389,390,391,392,393,394,395,396,397,398,399,400,401,402,403,404,405,406,407,408,409,410,411,412,413,414,415,416,417,418,419,420,421,422,423,424,425,426,427,428,429,430,431,432,433,434,435,436,437,438,439,440,441,442,443,444,445,446,447,448,449,450,451,452,453,454,455,456,457,458,459,460,461,462,463,464,465,466,467,468,469,470,471,472,473,474,475,476,477,478,479,480,481,482,483,484,485,486,487,488,489,490,491,492,493,494,495,496,497,498,499,500,501,502,503,504,505,506,507,508,509,510,511,512,513,514,515,516,517,518,519,520,521,522,523,524,525,526,527,528,529,530,531,532,533,534,535,536,537,538,539,540,541,542,543,544,545,546,547,548,549,550,551,552,553,554,555,556,557,558,559,560,561,562,563,564,565,566,567,568,569,570,571,572,573,574,575,576,577,578,579,580,581,582,583,584,585,586,587,588,589,590,591,592,593,594,595,596,597,598,599,600,601,602,603,604,605,606,607,608,609,610,611,612,613,614,615,616,617,618,619,620,621,622,623,624,625,626,627,628,629,630,631,632,633,634,635,636,637,638,639,640,641,642,643,644,645,646,647,648,649,650,651,652,653,654,655,656,657,658,659,660,661,662,663,664,665,666,667,668,669,670,671,672,673,674,675,676,677,678,679,680,681,682,683,684,685,686,687,688,689,690,691,692,693,694,695,696,697,698,699,700,701,702,703,704,705,706,707,708,709,710,711,712,713,714,715,716,717,718,719,720,721,722,723,724,725,726,727,728,729,730,731,732,733,734,735,736,737,738,739,740,741,742,743,744,745,746,747,748,749,750,751,752,753,754,755,756,757,758,759,760,761,762,763,764,765,766,767,768,769,770,771,772,773,774,775,776,777,778,779,780,781,782,783,784,785,786,787,788,789,790,791,792,793,794,795,796,797,798,799,800,801,802,803,804,805,806,807,808,809,810,811,812,813,814,815,816,817,818,819,820,821,822,823,824,825,826,827,828,829,830,831,832,833,834,835,836,837,838,839,840,841,842,843,844,845,846,847,848,849,850,851,852,853,854,855,856,857,858,859,860,861,862,863,864,865,866,867,868,869,870,871,872,873,874,875,876,877,878,879,880,881,882,883,884,885,886,887,888,889,890,891,892,893,894,895,896,897,898,899,900,901,902,903,904,905,906,907,908,909,910,911,912,913,914,915,916,917,918,919,920,921,922,923,924,925,926,927,928,929,930,931,932,933,934,935,936,937,938,939,940,941,942,943,944,945,946,947,948,949,950,951,952,953,954,955,956,957,958,959,960,961,962,963,964,965,966,967,968,969,970,971,972,973,974,975,976,977,978,979,980,981,982,983,984,985,986,987,988,989,990,991,992,993,994,995,996,997,998,999,1000,1001,1002,1003,1004,1005,1006,1007,1008,1009,1010,1011,1012,1013,1014,1015,1016,1017,1018,1019,1020,1021,1022,1023,1024,1025,1026,1027,1028,1029,1030,1031,1032,1033,1034,1035,1036,1037,1038,1039,1040,1041,1042,1043,1044,1045,1046,1047,1048,1049,1050,1051,1052,1053,1054,1055,1056,1057,1058,1059,1060,1061,1062,1063,1064,1065,1066,1067,1068,1069,1070,1071,1072,1073,1074,1075,1076,1077,1078,1079,1080,1081,1082,1083,1084,1085,1086,1087,1088,1089,1090,1091,1092,1093,1094,1095,1096,1097,1098,1099,1100,1101,1102,1103,1104,1105,1106,1107,1108,1109,1110,1111,1112,1113,1114,1115,1116,1117,1118,1119,1120,1121,1122,1123,1124,1125,1126,1127,1128,1129,1130,1131,1132,1133,1134,1135,1136,1137,1138,1139,1140,1141,1142,1143,1144,1145,1146,1147,1148,1149,1150,1151,1152,1153,1154,1155,1156,1157,1158,1159,1160,1161,1162,1163,1164,1165,1166,1167,1168,1169,1170,1171,1172,1173,1174,1175,1176,1177,1178,1179,1180,1181,1182,1183,1184,1185,1186,1187,1188,1189,1190,1191,1192,1193,1194,1195,1196,1197,1198,1199,1200,1201,1202,1203,1204,1205,1206,1207,1208,1209,1210,1211,1212,1213,1214,1215,1216,1217,1218,1219,1220,1221,1222,1223,1224,1225,1226,1227,1228,1229,1230,1231,1232,1233,1234,1235,1236,1237,1238,1239,1240,1241,1242,1243,1244,1245,1246,1247,1248,1249,1250,1251,1252,1253,1254,1255,1256,1257,1258,1259,1260,1261,1262,1263,1264,1265,1266,1267,1268,1269,1270,1271,1272,1273,1274,1275,1276,1277,1278,1279,1280,1281,1282,1283,1284,1285,1286,1287,1288,1289,1290,1291,1292,1293,1294,1295,1296,1297,1298,1299,1300,1301,1302,1303,1304,1305,1306,1307,1308,1309,1310,1311,1312,1313,1314,1315,1316,1317,1318,1319,1320,1321,1322,1323,1324,1325,1326,1327,1328,1329,1330,1331,1332,1333,1334,1335,1336,1337,1338,1339,1340,1341,1342,1343,1344,1345,1346,1347,1348,1349,1350,1351,1352,1353,1354,1355,1356,1357,1358,1359,1360,1361,1362,1363,1364,1365,1366,1367,1368,1369,1370,1371,1372,1373,1374,1375,1376,1377,1378,1379,1380,1381,1382,1383,1384,1385,1386,1387,1388,1389,1390,1391,1392,1393,1394,1395,1396,1397,1398,1399,1400,1401,1402,1403,1404,1405,1406,1407,1408,1409,1410,1411,1412,1413,1414,1415,1416,1417,1418,1419,1420,1421,1422,1423,1424,1425,1426,1427,1428,1429,1430,1431,1432,1433,1434,1435,1436,1437,1438,1439,1440,1441,1442,1443,1444,1445,1446,1447,1448,1449,1450,1451,1452,1453,1454,1455,1456,1457,1458,1459,1460,1461,1462,1463,1464,1465,1466,1467,1468,1469,1470,1471,1472,1473,1474,1475,1476,1477,1478,1479,1480,1481,1482,1483,1484,1485,1486,1487,1488,1489,1490,1491,1492,1493,1494,1495,1496,1497,1498,1499,1500,1501,1502,1503,1504,1505,1506,1507,1508,1509,1510,1511,1512,1513,1514,1515,1516,1517,1518,1519,1520,1521,1522,1523,1524,1525,1526,1527,1528,1529,1530,1531,1532,1533,1534,1535,1536,1537,1538,1539,1540,1541,1542,1543,1544,1545,1546,1547,1548,1549,1550,1551,1552,1553,1554,1555,1556,1557,1558,1559,1560,1561,1562,1563,1564,1565,1566,1567,1568,1569,1570,1571,1572,1573,1574,1575,1576,1577,1578,1579,1580,1581,1582,1583,1584,1585,1586,1587,1588,1589,1590,1591,1592,1593,1594,1595,1596,1597,1598,1599,1600,1601,1602,1603,1604,1605,1606,1607,1608,1609,1610,1611,1612,1613,1614,1615,1616,1617,1618,1619,1620,1621,1622,1623,1624,1625,1626,1627,1628,1629,1630,1631,1632,1633,1634,1635,1636,1637,1638,1639,1640,1641,1642,1643,1644,1645,1646,1647,1648,1649,1650,1651,1652,1653,1654,1655,1656,1657,1658,1659,1660,1661,1662,1663,1664,1665,1666,1667,1668,1669,1670,1671,1672,1673,1674,1675,1676,1677,1678,1679,1680,1681,1682,1683,1684,1685,1686,1687,1688,1689,1690,1691,1692,1693,1694,1695,1696,1697,1698,1699,1700,1701,1702,1703,1704,1705,1706,1707,1708,1709,1710,1711,1712,1713,1714,1715,1716,1717,1718,1719,1720,1721,1722,1723,1724,1725,1726,1727,1728,1729,1730,1731,1732,1733,1734,1735,1736,1737,1738,1739,1740,1741,1742,1743,1744,1745,1746,1747,1748,1749,1750,1751,1752,1753,1754,1755,1756,1757,1758,1759,1760,1761,1762,1763,1764,1765,1766,1767,1768,1769,1770,1771,1772,1773,1774,1775,1776,1777,1778,1779,1780,1781,1782,1783,1784,1785,1786,1787,1788,1789,1790,1791,1792,1793,1794,1795,1796,1797,1798,1799,1800,1801,1802,1803,1804,1805,1806,1807,1808,1809,1810,1811,1812,1813,1814,1815,1816,1817,1818,1819,1820,1821,1822,1823,1824,1825,1826,1827,1828,1829,1830,1831,1832,1833,1834,1835,1836,1837,1838,1839,1840,1841,1842,1843,1844,1845,1846,1847,1848,1849,1850,1851,1852,1853,1854,1855,1856,1857,1858,1859,1860,1861,1862,1863,1864,1865,1866,1867,1868,1869,1870,1871,1872,1873,1874,1875,1876,1877,1878,1879,1880,1881,1882,1883,1884,1885,1886,1887,1888,1889,1890,1891,1892,1893,1894,1895,1896,1897,1898,1899,1900,1901,1902,1903,1904,1905,1906,1907,1908,1909,1910,1911,1912,1913,1914,1915,1916,1917,1918,1919,1920,1921,1922,1923,1924,1925,1926,1927,1928,1929,1930,1931,1932,1933,1934,1935,1936,1937,1938,1939,1940,1941,1942,1943,1944,1945,1946,1947,1948,1949,1950,1951,1952,1953,1954,1955,1956,1957,1958,1959,1960,1961,1962,1963,1964,1965,1966,1967,1968,1969,1970,1971,1972,1973,1974,1975,1976,1977,1978,1979,1980,1981,1982,1983,1984,1985,1986,1987,1988,1989,1990,1991,1992,1993,1994,1995,1996,1997,1998,1999,2000,2001,2002,2003,2004,2005,2006,2007,2008,2009,2010,2011,2012,2013,2014,2015,2016,2017,2018,2019,2020,2021,2022,2023,2024,2025,2026,2027,2028,2029,2030,2031,2032,2033,2034,2035,2036,2037,2038,2039,2040,2041,2042,2043,2044,2045,2046,2047,2048,2049,2050,2051,2052,2053,2054,2055,2056,2057,2058,2059,2060,2061,2062,2063,2064,2065,2066,2067,2068,2069,2070,2071,2072,2073,2074,2075,2076,2077,2078,2079,2080,2081,2082,2083,2084,2085,2086,2087,2088,2089,2090,2091,2092,2093,2094,2095,2096,2097,2098,2099,2100,2101,2102,2103,2104,2105,2106,2107,2108,2109,2110,2111,2112,2113,2114,2115,2116,2117,2118,2119,2120,2121,2122,2123,2124,2125,2126,2127,2128,2129,2130,2131,2132,2133,2134,2135,2136,2137,2138,2139,2140,2141,2142,2143,2144,2145,2146,2147,2148,2149,2150,2151,2152,2153,2154,2155,2156,2157,2158,2159,2160,2161,2162,2163,2164,2165,2166,2167,2168,2169,2170,2171,2172,2173,2174,2175,2176,2177,2178,2179,2180,2181,2182,2183,2184,2185,2186,2187,2188,2189,2190,2191,2192,2193,2194,2195,2196,2197,2198,2199,2200,2201,2202,2203,2204,2205,2206,2207,2208,2209,2210,2211,2212,2213,2214,2215,2216,2217,2218,2219,2220,2221,2222,2223,2224,2225,2226,2227,2228,2229,2230,2231,2232,2233,2234,2235,2236,2237,2238,2239,2240,2241,2242,2243,2244,2245,2246,2247,2248,2249,2250,2251,2252,2253,2254,2255,2256,2257,2258,2259,2260,2261,2262,2263,2264,2265,2266,2267,2268,2269,2270,2271,2272,2273,2274,2275,2276,2277,2278,2279,2280,2281,2282,2283,2284,2285,2286,2287,2288,2289,2290,2291,2292,2293,2294,2295,2296,2297,2298,2299,2300,2301,2302,2303,2304,2305,2306,2307,2308,2309,2310,2311,2312,2313,2314,2315,2316,2317,2318,2319,2320,2321,2322,2323,2324,2325,2326,2327,2328,2329,2330,2331,2332,2333,2334,2335,2336,2337,2338,2339,2340,2341,2342,2343,2344,2345,2346,2347,2348,2349,2350,2351,2352,2353,2354,2355,2356,2357,2358,2359,2360,2361,2362,2363,2364,2365,2366,2367,2368,2369,2370,2371,2372,2373,2374,2375,2376,2377,2378,2379,2380,2381,2382,2383,2384,2385,2386,2387,2388,2389,2390,2391,2392,2393,2394,2395,2396,2397,2398,2399,2400,2401,2402,2403,2404,2405,2406,2407,2408,2409,2410,2411,2412,2413,2414,2415,2416,2417,2418,2419,2420,2421,2422,2423,2424,2425,2426,2427,2428,2429,2430,2431,2432,2433,2434,2435,2436,2437,2438,2439,2440,2441,2442,2443,2444,2445,2446,2447,2448,2449,2450,2451,2452,2453,2454,2455,2456,2457,2458,2459,2460,2461,2462,2463,2464,2465,2466,2467,2468,2469,2470,2471,2472,2473,2474,2475,2476,2477,2478,2479,2480,2481,2482,2483,2484,2485,2486,2487,2488,2489,2490,2491,2492,2493,2494,2495,2496,2497,2498,2499,2500,2501,2502,2503,2504,2505,2506,2507,2508,2509,2510,2511,2512,2513,2514,2515,2516,2517,2518,2519,2520,2521,2522,2523,2524,2525,2526,2527,2528,2529,2530,2531,2532,2533,2534,2535,2536,2537,2538,2539,2540,2541,2542,2543,2544,2545,2546,2547,2548,2549,2550,2551,2552,2553,2554,2555,2556,2557,2558,2559,2560,2561,2562,2563,2564,2565,2566,2567,2568,2569,2570,2571,2572,2573,2574,2575,2576,2577,2578,2579,2580,2581,2582,2583,2584,2585,2586,2587,2588,2589,2590,2591,2592,2593,2594,2595,2596,2597,2598,2599,2600,2601,2602,2603,2604,2605,2606,2607,2608,2609,2610,2611,2612,2613,2614,2615,2616,2617,2618,2619,2620,2621,2622,2623,2624,2625,2626,2627,2628,2629,2630,2631,2632,2633,2634,2635,2636,2637,2638,2639,2640,2641,2642,2643,2644,2645,2646,2647,2648,2649,2650,2651,2652,2653,2654,2655,2656,2657,2658,2659,2660,2661,2662,2663,2664,2665,2666,2667,2668,2669,2670,2671,2672,2673,2674,2675,2676,2677,2678,2679,2680,2681,2682,2683,2684,2685,2686,2687,2688,2689,2690,2691,2692,2693,2694,2695,2696,2697,2698,2699,2700,2701,2702,2703,2704,2705,2706,2707,2708,2709,2710,2711,2712,2713,2714,2715,2716,2717,2718,2719,2720,2721,2722,2723,2724,2725,2726,2727,2728,2729,2730,2731,2732,2733,2734,2735,2736,2737,2738,2739,2740,2741,2742,2743,2744,2745,2746,2747,2748,2749,2750,2751,2752,2753,2754,2755,2756,2757,2758,2759,2760,2761,2762,2763,2764,2765,2766,2767,2768,2769,2770,2771,2772,2773,2774,2775,2776,2777,2778,2779,2780,2781,2782,2783,2784,2785,2786,2787,2788,2789,2790,2791,2792,2793,2794,2795,2796,2797,2798,2799,2800,2801,2802,2803,2804,2805,2806,2807,2808,2809,2810,2811,2812,2813,2814,2815,2816,2817,2818,2819,2820,2821,2822,2823,2824,2825,2826,2827,2828,2829,2830,2831,2832,2833,2834,2835,2836,2837,2838,2839,2840,2841,2842,2843,2844,2845,2846,2847,2848,2849,2850,2851,2852,2853,2854,2855,2856,2857,2858,2859,2860,2861,2862,2863,2864,2865,2866,2867,2868,2869,2870,2871,2872,2873,2874,2875,2876,2877,2878,2879,2880,2881,2882,2883,2884,2885,2886,2887,2888,2889,2890,2891,2892,2893,2894,2895,2896,2897,2898,2899,2900,2901,2902,2903,2904,2905,2906,2907,2908,2909,2910,2911,2912,2913,2914,2915,2916,2917,2918,2919,2920,2921,2922,2923,2924,2925,2926,2927,2928,2929,2930,2931,2932,2933,2934,2935,2936,2937,2938,2939,2940,2941,2942,2943,2944,2945,2946,2947,2948,2949,2950,2951,2952,2953,2954,2955,2956,2957,2958,2959,2960,2961,2962,2963,2964,2965,2966,2967,2968,2969,2970,2971,2972,2973,2974,2975,2976,2977,2978,2979,2980,2981,2982,2983,2984,2985,2986,2987,2988,2989,2990,2991,2992,2993,2994,2995,2996,2997,2998,2999,3000,3001,3002,3003,3004,3005,3006,3007,3008,3009,3010,3011,3012,3013,3014,3015,3016,3017,3018,3019,3020,3021,3022,3023,3024,3025,3026,3027,3028,3029,3030,3031,3032,3033,3034,3035,3036,3037,3038,3039,3040,3041,3042,3043,3044,3045,3046,3047,3048,3049,3050,3051,3052,3053,3054,3055,3056,3057,3058,3059,3060,3061,3062,3063,3064,3065,3066,3067,3068,3069,3070,3071,3072,3073,3074,3075,3076,3077,3078,3079,3080,3081,3082,3083,3084,3085,3086,3087,3088,3089,3090,3091,3092,3093,3094,3095,3096,3097,3098,3099,3100,3101,3102,3103,3104,3105,3106,3107,3108,3109,3110,3111,3112,3113,3114,3115,3116,3117,3118,3119,3120,3121,3122,3123,3124,3125,3126,3127,3128,3129,3130,3131,3132,3133,3134,3135,3136,3137,3138,3139,3140,3141,3142,3143,3144,3145,3146,3147,3148,3149,3150,3151,3152,3153,3154,3155,3156,3157,3158,3159,3160,3161,3162,3163,3164,3165,3166,3167,3168,3169,3170,3171,3172,3173,3174,3175,3176,3177,3178,3179,3180,3181,3182,3183,3184,3185,3186,3187,3188,3189,3190,3191,3192,3193,3194,3195,3196,3197,3198,3199,3200,3201,3202,3203,3204,3205,3206,3207,3208,3209,3210,3211,3212,3213,3214,3215,3216,3217,3218,3219,3220,3221,3222,3223,3224,3225,3226,3227,3228,3229,3230,3231,3232,3233,3234,3235,3236,3237,3238,3239,3240,3241,3242,3243,3244,3245,3246,3247,3248,3249,3250,3251,3252,3253,3254,3255,3256,3257,3258,3259,3260,3261,3262,3263,3264,3265,3266,3267,3268,3269,3270,3271,3272,3273,3274,3275,3276,3277,3278,3279,3280,3281,3282,3283,3284,3285,3286,3287,3288,3289,3290,3291,3292,3293,3294,3295,3296,3297,3298,3299,3300,3301,3302,3303,3304,3305,3306,3307,3308,3309,3310,3311,3312,3313,3314,3315,3316,3317,3318,3319,3320,3321,3322,3323,3324,3325,3326,3327,3328,3329,3330,3331,3332,3333,3334,3335,3336,3337,3338,3339,3340,3341,3342,3343,3344,3345,3346,3347,3348,3349,3350,3351,3352,3353,3354,3355,3356,3357,3358,3359,3360,3361,3362,3363,3364,3365,3366,3367,3368,3369,3370,3371,3372,3373,3374,3375,3376,3377,3378,3379,3380,3381,3382,3383,3384,3385,3386,3387,3388,3389,3390,3391,3392,3393,3394,3395,3396,3397,3398,3399,3400,3401,3402,3403,3404,3405,3406,3407,3408,3409,3410,3411,3412,3413,3414,3415,3416,3417,3418,3419,3420,3421,3422,3423,3424,3425,3426,3427,3428,3429,3430,3431,3432,3433,3434,3435,3436,3437,3438,3439,3440,3441,3442,3443,3444,3445,3446,3447,3448,3449,3450,3451,3452,3453,3454,3455,3456,3457,3458,3459,3460,3461,3462,3463,3464,3465,3466,3467,3468,3469,3470,3471,3472,3473,3474,3475,3476,3477,3478,3479,3480,3481,3482,3483,3484,3485,3486,3487,3488,3489,3490,3491,3492,3493,3494,3495,3496,3497,3498,3499,3500,3501,3502,3503,3504,3505,3506,3507,3508,3509,3510,3511,3512,3513,3514,3515,3516,3517,3518,3519,3520,3521,3522,3523,3524,3525,3526,3527,3528,3529,3530,3531,3532,3533,3534,3535,3536,3537,3538,3539,3540,3541,3542,3543,3544,3545,3546,3547,3548,3549,3550,3551,3552,3553,3554,3555,3556,3557,3558,3559,3560,3561,3562,3563,3564,3565,3566,3567,3568,3569,3570,3571,3572,3573,3574,3575,3576,3577,3578,3579,3580,3581,3582,3583,3584,3585,3586,3587,3588,3589,3590,3591,3592,3593,3594,3595,3596,3597,3598,3599,3600,3601,3602,3603,3604,3605,3606,3607,3608,3609,3610,3611,3612,3613,3614,3615,3616,3617,3618,3619,3620,3621,3622,3623,3624,3625,3626,3627,3628,3629,3630,3631,3632,3633,3634,3635,3636,3637,3638,3639,3640,3641,3642,3643,3644,3645,3646,3647,3648,3649,3650,3651,3652,3653,3654,3655,3656,3657,3658,3659,3660,3661,3662,3663,3664,3665,3666,3667,3668,3669,3670,3671,3672,3673,3674,3675,3676,3677,3678,3679,3680,3681,3682,3683,3684,3685,3686,3687,3688,3689,3690,3691,3692,3693,3694,3695,3696,3697,3698,3699,3700,3701,3702,3703,3704,3705,3706,3707,3708,3709,3710,3711,3712,3713,3714,3715,3716,3717,3718,3719,3720,3721,3722,3723,3724,3725,3726,3727,3728,3729,3730,3731,3732,3733,3734,3735,3736,3737,3738,3739,3740,3741,3742,3743,3744,3745,3746,3747,3748,3749,3750,3751,3752,3753,3754,3755,3756,3757,3758,3759,3760,3761,3762,3763,3764,3765,3766,3767,3768,3769,3770,3771,3772,3773,3774,3775,3776,3777,3778,3779,3780,3781,3782,3783,3784,3785,3786,3787,3788,3789,3790,3791,3792,3793,3794,3795,3796,3797,3798,3799,3800,3801,3802,3803,3804,3805,3806,3807,3808,3809,3810,3811,3812,3813,3814,3815,3816,3817,3818,3819,3820,3821,3822,3823,3824,3825,3826,3827,3828,3829,3830,3831,3832,3833,3834,3835,3836,3837,3838,3839,3840,3841,3842,3843,3844,3845,3846,3847,3848,3849,3850,3851,3852,3853,3854,3855,3856,3857,3858,3859,3860,3861,3862,3863,3864,3865,3866,3867,3868,3869,3870,3871,3872,3873,3874,3875,3876,3877,3878,3879,3880,3881,3882,3883,3884,3885,3886,3887,3888,3889,3890,3891,3892,3893,3894,3895,3896,3897,3898,3899,3900,3901,3902,3903,3904,3905,3906,3907,3908,3909,3910,3911,3912,3913,3914,3915,3916,3917,3918,3919,3920,3921,3922,3923,3924,3925,3926,3927,3928,3929,3930,3931,3932,3933,3934,3935,3936,3937,3938,3939,3940,3941,3942,3943,3944,3945,3946,3947,3948,3949,3950,3951,3952,3953,3954,3955,3956,3957,3958,3959,3960,3961,3962,3963,3964,3965,3966,3967,3968,3969,3970,3971,3972,3973,3974,3975,3976,3977,3978,3979,3980,3981,3982,3983,3984,3985,3986,3987,3988,3989,3990,3991,3992,3993,3994,3995,3996,3997,3998,3999,4000,4001,4002,4003,4004,4005,4006,4007,4008,4009,4010,4011,4012,4013,4014,4015,4016,4017,4018,4019,4020,4021,4022,4023,4024,4025,4026,4027,4028,4029,4030,4031,4032,4033,4034,4035,4036,4037,4038,4039,4040,4041,4042,4043,4044,4045,4046,4047,4048,4049,4050,4051,4052,4053,4054,4055,4056,4057,4058,4059,4060,4061,4062,4063,4064,4065,4066,4067,4068,4069,4070,4071,4072,4073,4074,4075,4076,4077,4078,4079,4080,4081,4082,4083,4084,4085,4086,4087,4088,4089,4090,4091,4092,4093,4094,4095,4096,4097,4098,4099,4100,4101,4102,4103,4104,4105,4106,4107,4108,4109,4110,4111,4112,4113,4114,4115,4116,4117,4118,4119,4120,4121,4122,4123,4124,4125,4126,4127,4128,4129,4130,4131,4132,4133,4134,4135,4136,4137,4138,4139,4140,4141,4142,4143,4144,4145,4146,4147,4148,4149,4150,4151,4152,4153,4154,4155,4156,4157,4158,4159,4160,4161,4162,4163,4164,4165,4166,4167,4168,4169,4170,4171,4172,4173,4174,4175,4176,4177,4178,4179,4180,4181,4182,4183,4184,4185,4186,4187,4188,4189,4190,4191,4192,4193,4194,4195,4196,4197,4198,4199,4200,4201,4202,4203,4204,4205,4206,4207,4208,4209,4210,4211,4212,4213,4214,4215,4216,4217,4218,4219,4220,4221,4222,4223,4224,4225,4226,4227,4228,4229,4230,4231,4232,4233,4234,4235,4236,4237,4238,4239,4240,4241,4242,4243,4244,4245,4246,4247,4248,4249,4250,4251,4252,4253,4254,4255,4256,4257,4258,4259,4260,4261,4262,4263,4264,4265,4266,4267,4268,4269,4270,4271,4272,4273,4274,4275,4276,4277,4278,4279,4280,4281,4282,4283,4284,4285,4286,4287,4288,4289,4290,4291,4292,4293,4294,4295,4296,4297,4298,4299,4300,4301,4302,4303,4304,4305,4306,4307,4308,4309,4310,4311,4312,4313,4314,4315,4316,4317,4318,4319,4320,4321,4322,4323,4324,4325,4326,4327,4328,4329,4330,4331,4332,4333,4334,4335,4336,4337,4338,4339,4340,4341,4342,4343,4344,4345,4346,4347,4348,4349,4350,4351,4352,4353,4354,4355,4356,4357,4358,4359,4360,4361,4362,4363,4364,4365,4366,4367,4368,4369,4370,4371,4372,4373,4374,4375,4376,4377,4378,4379,4380,4381,4382,4383,4384,4385,4386,4387,4388,4389,4390,4391,4392,4393,4394,4395,4396,4397,4398,4399,4400,4401,4402,4403,4404,4405,4406,4407,4408,4409,4410,4411,4412,4413,4414,4415,4416,4417,4418,4419,4420,4421,4422,4423,4424,4425,4426,4427,4428,4429,4430,4431,4432,4433,4434,4435,4436,4437,4438,4439,4440,4441,4442,4443,4444,4445,4446,4447,4448,4449,4450,4451,4452,4453,4454,4455,4456,4457,4458,4459,4460,4461,4462,4463,4464,4465,4466,4467,4468,4469,4470,4471,4472,4473,4474,4475,4476,4477,4478,4479,4480,4481,4482,4483,4484,4485,4486,4487,4488,4489,4490,4491,4492,4493,4494,4495,4496,4497,4498,4499,4500,4501,4502,4503,4504,4505,4506,4507,4508,4509,4510,4511,4512,4513,4514,4515,4516,4517,4518,4519,4520,4521,4522,4523,4524,4525,4526,4527,4528,4529,4530,4531,4532,4533,4534,4535,4536,4537,4538,4539,4540,4541,4542,4543,4544,4545,4546,4547,4548,4549,4550,4551,4552,4553,4554,4555,4556,4557,4558,4559,4560,4561,4562,4563,4564,4565,4566,4567,4568,4569,4570,4571,4572,4573,4574,4575,4576,4577,4578,4579,4580,4581,4582,4583,4584,4585,4586,4587,4588,4589,4590,4591,4592,4593,4594,4595,4596,4597,4598,4599,4600,4601,4602,4603,4604,4605,4606,4607,4608,4609,4610,4611,4612,4613,4614,4615,4616,4617,4618,4619,4620,4621,4622,4623,4624,4625,4626,4627,4628,4629,4630,4631,4632,4633,4634,4635,4636,4637,4638,4639,4640,4641,4642,4643,4644,4645,4646,4647,4648,4649,4650,4651,4652,4653,4654,4655,4656,4657,4658,4659,4660,4661,4662,4663,4664,4665,4666,4667,4668,4669,4670,4671,4672,4673,4674,4675,4676,4677,4678,4679,4680,4681,4682,4683,4684,4685,4686,4687,4688,4689,4690,4691,4692,4693,4694,4695,4696,4697,4698,4699,4700,4701,4702,4703,4704,4705,4706,4707,4708,4709,4710,4711,4712,4713,4714,4715,4716,4717,4718,4719,4720,4721,4722,4723,4724,4725,4726,4727,4728,4729,4730,4731,4732,4733,4734,4735,4736,4737,4738,4739,4740,4741,4742,4743,4744,4745,4746,4747,4748,4749,4750,4751,4752,4753,4754,4755,4756,4757,4758,4759,4760,4761,4762,4763,4764,4765,4766,4767,4768,4769,4770,4771,4772,4773,4774,4775,4776,4777,4778,4779,4780,4781,4782,4783,4784,4785,4786,4787,4788,4789,4790,4791,4792,4793,4794,4795,4796,4797,4798,4799,4800,4801,4802,4803,4804,4805,4806,4807,4808,4809,4810,4811,4812,4813,4814,4815,4816,4817,4818,4819,4820,4821,4822,4823,4824,4825,4826,4827,4828,4829,4830,4831,4832,4833,4834,4835,4836,4837,4838,4839,4840,4841,4842,4843,4844,4845,4846,4847,4848,4849,4850,4851,4852,4853,4854,4855,4856,4857,4858,4859,4860,4861,4862,4863,4864,4865,4866,4867,4868,4869,4870,4871,4872,4873,4874,4875,4876,4877,4878,4879,4880,4881,4882,4883,4884,4885,4886,4887,4888,4889,4890,4891,4892,4893,4894,4895,4896,4897,4898,4899,4900,4901,4902,4903,4904,4905,4906,4907,4908,4909,4910,4911,4912,4913,4914,4915,4916,4917,4918,4919,4920,4921,4922,4923,4924,4925,4926,4927,4928,4929,4930,4931,4932,4933,4934,4935,4936,4937,4938,4939,4940,4941,4942,4943,4944,4945,4946,4947,4948,4949,4950,4951,4952,4953,4954,4955,4956,4957,4958,4959,4960,4961,4962,4963,4964,4965,4966,4967,4968,4969,4970,4971,4972,4973,4974,4975,4976,4977,4978,4979,4980,4981,4982,4983,4984,4985,4986,4987,4988,4989,4990,4991,4992,4993,4994,4995,4996,4997,4998,4999
522.0,515.0,510.0,504.0,508.0,515.0,522.0,524.0,532.0,533.0,526.0,512.0,508.0,509.0,528.0,534.0,542.0,543.0,541.0,536.0,527.0,539.0,535.0,531.0,534.0,539.0,541.0,533.0,534.0,528.0,523.0,525.0,533.0,542.0,547.0,446.0,415.0,320.0,281.0,264.0,334.0,384.0,590.0,574.0,567.0,568.0,583.0,591.0,595.0,606.0,596.0,590.0,585.0,588.0,596.0,606.0,649.0,653.0,648.0,646.0,646.0,653.0,664.0,727.0,738.0,741.0,738.0,725.0,716.0,712.0,553.0,548.0,545.0,533.0,494.0,480.0,473.0,417.0,426.0,433.0,438.0,435.0,428.0,420.0,431.0,427.0,427.0,433.0,446.0,455.0,455.0,468.0,456.0,450.0,447.0,453.0,463.0,469.0,465.0,463.0,458.0,449.0,443.0,446.0,450.0,449.0,468.0,470.0,466.0,457.0,448.0,446.0,447.0,462.0,468.0,471.0,469.0,461.0,456.0,476.0,460.0,461.0,466.0,478.0,483.0,486.0,491.0,487.0,479.0,472.0,474.0,483.0,491.0,486.0,498.0,500.0,493.0,479.0,476.0,479.0,489.0,498.0,507.0,512.0,513.0,507.0,500.0,497.0,500.0,510.0,518.0,519.0,515.0,507.0,514.0,516.0,524.0,530.0,534.0,530.0,524.0,525.0,516.0,519.0,521.0,523.0,515.0,507.0,509.0,507.0,515.0,524.0,533.0,535.0,535.0,314.0,220.0,208.0,221.0,370.0,425.0,469.0,584.0,566.0,564.0,568.0,589.0,595.0,596.0,611.0,600.0,591.0,590.0,597.0,610.0,618.0,659.0,669.0,671.0,670.0,661.0,663.0,667.0,739.0,747.0,756.0,763.0,752.0,741.0,731.0,576.0,562.0,552.0,549.0,544.0,538.0,526.0,432.0,414.0,412.0,413.0,425.0,432.0,434.0,439.0,434.0,424.0,423.0,432.0,438.0,448.0,458.0,455.0,448.0,442.0,434.0,440.0,447.0,452.0,466.0,467.0,464.0,446.0,443.0,446.0,451.0,468.0,472.0,473.0,463.0,456.0,447.0,454.0,457.0,465.0,473.0,479.0,475.0,467.0,480.0,463.0,459.0,459.0,469.0,476.0,483.0,488.0,471.0,466.0,463.0,468.0,479.0,485.0,488.0,499.0,496.0,488.0,477.0,476.0,480.0,494.0,506.0,512.0,511.0,499.0,490.0,489.0,494.0,518.0,521.0,519.0,509.0,501.0,495.0,503.0,511.0,521.0,528.0,525.0,520.0,512.0,526.0,541.0,552.0,558.0,563.0,559.0,552.0,503.0,508.0,514.0,523.0,527.0,526.0,517.0,550.0,615.0,657.0,706.0,742.0,734.0,703.0,495.0,533.0,548.0,565.0,577.0,586.0,583.0,596.0,591.0,585.0,578.0,573.0,577.0,587.0,623.0,624.0,621.0,614.0,611.0,616.0,627.0,685.0,697.0,705.0,703.0,700.0,700.0,708.0,737.0,738.0,737.0,718.0,701.0,686.0,666.0,491.0,480.0,475.0,477.0,476.0,477.0,463.0,446.0,439.0,431.0,425.0,424.0,434.0,447.0,451.0,460.0,467.0,464.0,457.0,451.0,445.0,456.0,462.0,473.0,479.0,479.0,472.0,457.0,463.0,456.0,459.0,469.0,477.0,481.0,477.0,479.0,461.0,463.0,469.0,487.0,490.0,490.0,475.0,470.0,472.0,484.0,492.0,496.0,491.0,492.0,486.0,481.0,478.0,484.0,490.0,501.0,511.0,511.0,509.0,496.0,489.0,485.0,487.0,501.0,511.0,514.0,514.0,501.0,494.0,490.0,494.0,505.0,513.0,520.0,517.0,511.0,500.0,504.0,510.0,519.0,533.0,543.0,545.0,541.0,505.0,496.0,490.0,486.0,490.0,496.0,506.0,505.0,511.0,510.0,507.0,516.0,536.0,565.0,236.0,258.0,300.0,363.0,408.0,444.0,481.0,552.0,543.0,536.0,534.0,539.0,545.0,561.0,575.0,582.0,583.0,574.0,568.0,564.0,563.0,598.0,610.0,619.0,634.0,637.0,635.0,625.0,696.0,698.0,708.0,719.0,726.0,723.0,716.0,586.0,545.0,540.0,539.0,534.0,526.0,514.0,429.0,420.0,411.0,405.0,413.0,420.0,427.0,440.0,430.0,423.0,419.0,420.0,429.0,440.0,452.0,461.0,460.0,453.0,446.0,438.0,442.0,445.0,465.0,468.0,465.0,451.0,447.0,442.0,450.0,458.0,468.0,477.0,477.0,473.0,462.0,465.0,461.0,461.0,466.0,478.0,484.0,484.0,489.0,483.0,475.0,466.0,468.0,472.0,489.0,490.0,495.0,496.0,490.0,478.0,474.0,470.0,479.0,494.0,499.0,505.0,494.0,487.0,484.0,488.0,491.0,497.0,505.0,513.0,516.0,509.0,510.0,498.0,500.0,510.0,520.0,523.0,522.0,526.0,519.0,512.0,505.0,504.0,512.0,519.0,527.0,537.0,540.0,538.0,531.0,532.0,539.0,520.0,523.0,528.0,529.0,521.0,513.0,505.0,510.0,518.0,528.0,542.0,551.0,559.0,600.0,219.0,219.0,249.0,328.0,395.0,455.0,526.0,598.0,591.0,584.0,579.0,582.0,591.0,601.0,616.0,624.0,620.0,618.0,611.0,604.0,610.0,658.0,688.0,688.0,685.0,678.0,681.0,685.0,763.0,778.0,774.0,763.0,749.0,740.0,735.0,543.0,536.0,533.0,523.0,502.0,485.0,473.0,424.0,418.0,423.0,431.0,439.0,438.0,432.0,427.0,421.0,421.0,428.0,444.0,451.0,451.0,461.0,444.0,442.0,446.0,467.0,470.0,466.0,470.0,458.0,452.0,448.0,449.0,457.0,467.0,476.0,469.0,462.0,455.0,451.0,455.0,464.0,470.0,478.0,481.0,482.0,469.0,460.0,457.0,463.0,479.0,484.0,486.0,479.0,471.0,466.0,473.0,495.0,500.0,497.0,492.0,481.0,475.0,483.0,482.0,490.0,498.0,507.0,505.0,498.0,504.0,493.0,493.0,502.0,514.0,517.0,516.0,517.0,502.0,498.0,495.0,501.0,509.0,515.0,521.0,528.0,520.0,511.0,505.0,506.0,514.0,525.0,538.0,537.0,530.0,521.0,517.0,515.0,539.0,555.0,557.0,552.0,539.0,527.0,521.0,498.0,518.0,523.0,528.0,518.0,510.0,505.0,609.0,531.0,502.0,478.0,428.0,399.0,366.0,576.0,564.0,558.0,553.0,555.0,562.0,572.0,580.0,597.0,596.0,588.0,578.0,574.0,574.0,603.0,626.0,633.0,633.0,624.0,620.0,618.0,684.0,707.0,717.0,727.0,728.0,722.0,716.0,674.0,662.0,653.0,650.0,644.0,641.0,626.0,463.0,432.0,424.0,421.0,429.0,436.0,443.0,440.0,436.0,430.0,423.0,418.0,419.0,430.0,445.0,460.0,460.0,453.0,442.0,439.0,442.0,447.0,464.0,467.0,472.0,463.0,455.0,447.0,447.0,454.0,461.0,472.0,469.0,462.0,452.0,457.0,463.0,470.0,478.0,477.0,468.0,462.0,473.0,466.0,462.0,464.0,476.0,482.0,487.0,491.0,498.0,496.0,490.0,476.0,473.0,476.0,487.0,495.0,504.0,507.0,505.0,499.0,491.0,484.0,493.0,502.0,508.0,509.0,501.0,493.0,489.0,497.0,505.0,513.0,516.0,511.0,504.0,508.0,500.0,502.0,508.0,522.0,529.0,528.0,544.0,519.0,516.0,518.0,524.0,530.0,534.0,512.0,494.0,494.0,498.0,511.0,516.0,517.0,575.0,487.0,445.0,412.0,364.0,346.0,316.0,565.0,565.0,557.0,550.0,552.0,557.0,567.0,568.0,575.0,584.0,586.0,577.0,571.0,564.0,595.0,592.0,590.0,596.0,617.0,625.0,628.0,697.0,699.0,696.0,679.0,679.0,681.0,717.0,678.0,677.0,671.0,648.0,631.0,613.0,593.0,435.0,436.0,438.0,444.0,445.0,439.0,426.0,416.0,412.0,410.0,417.0,428.0,437.0,439.0,452.0,442.0,435.0,434.0,439.0,449.0,466.0,476.0,475.0,466.0,456.0,450.0,449.0,462.0,463.0,469.0,478.0,476.0,470.0,463.0,454.0,457.0,461.0,467.0,480.0,487.0,486.0,474.0,491.0,483.0,473.0,466.0,465.0,472.0,482.0,489.0,498.0,499.0,497.0,487.0,480.0,473.0,483.0,491.0,501.0,509.0,505.0,497.0,485.0,487.0,488.0,492.0,509.0,513.0,517.0,510.0,515.0,511.0,501.0,499.0,500.0,507.0,526.0,532.0,536.0,530.0,521.0,512.0,507.0,511.0,512.0,515.0,524.0,535.0,536.0,532.0,515.0,518.0,516.0,523.0,535.0,541.0,543.0,522.0,523.0,528.0,537.0,560.0,570.0,571.0,558.0,528.0,519.0,510.0,508.0,515.0,524.0,534.0,543.0,541.0,536.0,538.0,553.0,583.0,655.0,315.0,370.0,420.0,473.0,499.0,520.0,563.0,593.0,599.0,602.0,594.0,587.0,578.0,576.0,592.0,603.0,615.0,627.0,626.0,621.0,604.0,652.0,658.0,668.0,686.0,698.0,703.0,695.0,746.0,738.0,735.0,740.0,744.0,748.0,741.0,556.0,542.0,524.0,495.0,481.0,475.0,475.0,422.0,432.0,428.0,417.0,410.0,409.0,418.0,432.0,442.0,446.0,444.0,431.0,424.0,421.0,440.0,456.0,465.0,468.0,461.0,453.0,444.0,448.0,443.0,452.0,462.0,474.0,474.0,466.0,458.0,449.0,452.0,463.0,477.0,478.0,474.0,473.0,456.0,458.0,465.0,487.0,485.0,478.0,474.0,465.0,469.0,476.0,490.0,495.0,492.0,494.0,486.0,479.0,474.0,482.0,490.0,501.0,508.0,501.0,493.0,485.0,486.0,493.0,501.0,500.0,514.0,512.0,508.0,496.0,493.0,490.0,497.0,519.0,525.0,522.0,512.0,505.0,498.0,505.0,521.0,528.0,533.0,523.0,513.0,505.0,511.0,513.0,521.0,530.0,537.0,531.0,523.0,545.0,539.0,538.0,541.0,557.0,564.0,560.0,534.0,520.0,507.0,505.0,511.0,519.0,529.0,604.0,684.0,709.0,719.0,698.0,665.0,631.0,489.0,537.0,558.0,570.0,571.0,564.0,558.0,566.0,566.0,572.0,581.0,590.0,594.0,590.0,602.0,597.0,598.0,606.0,618.0,627.0,632.0,684.0,682.0,679.0,670.0,671.0,675.0,689.0,741.0,736.0,723.0,699.0,688.0,680.0,683.0,490.0,495.0,497.0,486.0,472.0,455.0,434.0,409.0,419.0,433.0,446.0,446.0,440.0,420.0,446.0,434.0,430.0,437.0,448.0,461.0,468.0,475.0,465.0,458.0,451.0,455.0,461.0,475.0,484.0,476.0,464.0,454.0,453.0,457.0,474.0,473.0,483.0,485.0,477.0,469.0,463.0,460.0,471.0,480.0,489.0,490.0,485.0,478.0,467.0,477.0,479.0,485.0,497.0,504.0,504.0,494.0,488.0,481.0,480.0,487.0,500.0,508.0,510.0,511.0,503.0,492.0,484.0,490.0,499.0,516.0,504.0,515.0,521.0,516.0,505.0,496.0,489.0,512.0,520.0,523.0,518.0,512.0,504.0,498.0,512.0,519.0,525.0,532.0,530.0,524.0,511.0,512.0,509.0,512.0,516.0,519.0,521.0,510.0,498.0,495.0,493.0,500.0,508.0,517.0,521.0,363.0,329.0,290.0,228.0,242.0,275.0,366.0,574.0,567.0,560.0,554.0,557.0,568.0,579.0,594.0,595.0,591.0,575.0,574.0,571.0,593.0,648.0,652.0,651.0,639.0,633.0,636.0,656.0,733.0,748.0,753.0,751.0,742.0,734.0,719.0,585.0,570.0,563.0,559.0,558.0,549.0,528.0,432.0,419.0,409.0,403.0,412.0,423.0,436.0,441.0,444.0,442.0,429.0,423.0,414.0,419.0,451.0,461.0,464.0,457.0,450.0,440.0,436.0,447.0,457.0,464.0,466.0,461.0,453.0,444.0,451.0,446.0,447.0,458.0,468.0,473.0,466.0,464.0,459.0,457.0,466.0,474.0,482.0,483.0,488.0,486.0,479.0,465.0,465.0,469.0,489.0,501.0,504.0,498.0,479.0,472.0,471.0,481.0,498.0,506.0,511.0,500.0,488.0,480.0,478.0,492.0,505.0,514.0,516.0,511.0,501.0,490.0,493.0,493.0,495.0,504.0,513.0,523.0,525.0,519.0,508.0,500.0,504.0,512.0,524.0,526.0,538.0,531.0,523.0,510.0,510.0,518.0,532.0,565.0,566.0,558.0,535.0,525.0,523.0,545.0,512.0,524.0,530.0,524.0,516.0,509.0,502.0,688.0,669.0,635.0,581.0,554.0,527.0,452.0,573.0,566.0,558.0,555.0,563.0,570.0,583.0,592.0,591.0,589.0,573.0,566.0,565.0,578.0,616.0,622.0,624.0,608.0,607.0,606.0,621.0,704.0,714.0,721.0,719.0,716.0,709.0,713.0,693.0,687.0,686.0,688.0,684.0,675.0,649.0,450.0,435.0,427.0,423.0,426.0,432.0,429.0,428.0,423.0,415.0,405.0,403.0,407.0,428.0,436.0,446.0,449.0,444.0,438.0,430.0,425.0,449.0,456.0,465.0,466.0,461.0,453.0,441.0,450.0,453.0,461.0,470.0,472.0,470.0,455.0,456.0,453.0,454.0,476.0,482.0,478.0,467.0,472.0,464.0,465.0,481.0,489.0,492.0,484.0,487.0,480.0,481.0,498.0,505.0,511.0,503.0,491.0,487.0,487.0,505.0,511.0,512.0,506.0,500.0,495.0,495.0,500.0,511.0,518.0,519.0,521.0,514.0,508.0,505.0,510.0,518.0,529.0,536.0,534.0,526.0,511.0,509.0,513.0,528.0,544.0,543.0,537.0,530.0,525.0,529.0,560.0,527.0,529.0,535.0,532.0,524.0,515.0,505.0,509.0,511.0,522.0,537.0,536.0,534.0,544.0,290.0,256.0,250.0,292.0,339.0,393.0,466.0,563.0,557.0,555.0,564.0,574.0,582.0,589.0,596.0,589.0,580.0,574.0,582.0,590.0,609.0,650.0,642.0,637.0,643.0,655.0,666.0,688.0,742.0,742.0,732.0,716.0,714.0,713.0,719.0,540.0,530.0,516.0,494.0,479.0,468.0,468.0,434.0,438.0,437.0,419.0,412.0,410.0,420.0,442.0,447.0,453.0,447.0,440.0,432.0,431.0,463.0,469.0,474.0,466.0,457.0,449.0,449.0,452.0,460.0,467.0,477.0,472.0,462.0,454.0,460.0,458.0,462.0,479.0,481.0,484.0,470.0,489.0,486.0,476.0,468.0,472.0,481.0,490.0,489.0,495.0,500.0,493.0,486.0,479.0,476.0,491.0,499.0,506.0,509.0,503.0,493.0,481.0,494.0,488.0,491.0,511.0,516.0,515.0,506.0,496.0,490.0,489.0,504.0,512.0,517.0,510.0,510.0,501.0,497.0,510.0,518.0,524.0,523.0,524.0,513.0,504.0,500.0,505.0,511.0,524.0,537.0,547.0,553.0,548.0,540.0,531.0,530.0,498.0,503.0,510.0,523.0,517.0,509.0,498.0,525.0,551.0,583.0,644.0,668.0,677.0,622.0,489.0,517.0,543.0,575.0,567.0,559.0,546.0,560.0,566.0,577.0,587.0,584.0,577.0,562.0,590.0,594.0,605.0,623.0,618.0,611.0,605.0,672.0,668.0,669.0,679.0,692.0,704.0,714.0,727.0,717.0,701.0,686.0,676.0,673.0,676.0,487.0,489.0,484.0,451.0,440.0,435.0,435.0,430.0,438.0,440.0,426.0,419.0,415.0,421.0,451.0,456.0,458.0,445.0,436.0,433.0,439.0,455.0,464.0,467.0,466.0,462.0,452.0,445.0,448.0,448.0,449.0,464.0,473.0,477.0,462.0,449.0,450.0,457.0,471.0,477.0,473.0,455.0,452.0,452.0,458.0,471.0,477.0,480.0,465.0,475.0,464.0,464.0,466.0,474.0,485.0,498.0,502.0,504.0,500.0,480.0,476.0,477.0,487.0,486.0,496.0,504.0,505.0,501.0,492.0,482.0,492.0,501.0,508.0,514.0,508.0,497.0,486.0,489.0,492.0,499.0,515.0,516.0,514.0,504.0,510.0,503.0,498.0,500.0,506.0,513.0,526.0,531.0,533.0,529.0,519.0,513.0,513.0,527.0,553.0,559.0,558.0,546.0,534.0,526.0,522.0,501.0,508.0,516.0,526.0,526.0,521.0,502.0,698.0,665.0,624.0,565.0,547.0,521.0,461.0,569.0,561.0,553.0,549.0,554.0,564.0,581.0,591.0,583.0,577.0,575.0,582.0,591.0,608.0,641.0,638.0,633.0,625.0,625.0,631.0,651.0,716.0,728.0,733.0,724.0,719.0,716.0,726.0,686.0,683.0,674.0,636.0,615.0,601.0,586.0,432.0,439.0,443.0,437.0,427.0,415.0,408.0,419.0,427.0,438.0,438.0,429.0,422.0,417.0,433.0,439.0,450.0,461.0,462.0,461.0,445.0,449.0,452.0,459.0,470.0,475.0,471.0,460.0,464.0,456.0,452.0,458.0,464.0,472.0,484.0,485.0,478.0,467.0,459.0,460.0,471.0,486.0,498.0,492.0,482.0,469.0,469.0,476.0,497.0,503.0,509.0,507.0,493.0,486.0,483.0,484.0,504.0,513.0,521.0,519.0,512.0,505.0,499.0,513.0,524.0,530.0,531.0,524.0,516.0,506.0,513.0,518.0,527.0,537.0,541.0,536.0,514.0,517.0,511.0,516.0,526.0,533.0,538.0,537.0,518.0,513.0,510.0,516.0,524.0,532.0,535.0,557.0,548.0,542.0,548.0,557.0,565.0,572.0,522.0,514.0,505.0,505.0,516.0,524.0,528.0,604.0,635.0,664.0,699.0,704.0,688.0,657.0,521.0,576.0,573.0,564.0,555.0,555.0,561.0,582.0,601.0,600.0,594.0,580.0,575.0,577.0,591.0,600.0,606.0,618.0,626.0,623.0,617.0,679.0,683.0,694.0,706.0,723.0,727.0,728.0,727.0,702.0,694.0,693.0,695.0,686.0,670.0,461.0,424.0,415.0,412.0,425.0,428.0,422.0,406.0,395.0,388.0,379.0,381.0,393.0,408.0,417.0,434.0,429.0,421.0,408.0,406.0,409.0,422.0,445.0,452.0,451.0,436.0,427.0,424.0,427.0,450.0,457.0,460.0,456.0,445.0,430.0,435.0,433.0,439.0,460.0,466.0,467.0,450.0,459.0,451.0,446.0,453.0,463.0,474.0,481.0,493.0,487.0,476.0,462.0,463.0,469.0,491.0,508.0,508.0,500.0,475.0,477.0,482.0,504.0,518.0,518.0,512.0,487.0,488.0,493.0,508.0,509.0,519.0,526.0,517.0,507.0,495.0,489.0,503.0,515.0,525.0,530.0,524.0,513.0,499.0,525.0,534.0,540.0,535.0,527.0,516.0,511.0,523.0,516.0,515.0,526.0,532.0,532.0,518.0,507.0,501.0,496.0,509.0,519.0,525.0,525.0,478.0,433.0,385.0,319.0,283.0,248.0,219.0,581.0,587.0,585.0,572.0,563.0,557.0,574.0,588.0,598.0,607.0,599.0,590.0,582.0,577.0,616.0,627.0,642.0,658.0,660.0,656.0,643.0,719.0,730.0,745.0,759.0,762.0,757.0,740.0,597.0,584.0,579.0,579.0,575.0,567.0,533.0,438.0,427.0,414.0,404.0,406.0,413.0,427.0,429.0,441.0,445.0,445.0,436.0,425.0,416.0,437.0,446.0,456.0,470.0,471.0,467.0,448.0,445.0,449.0,458.0,477.0,479.0,475.0,461.0,453.0,450.0,450.0,465.0,475.0,481.0,477.0,474.0,464.0,457.0,453.0,460.0,470.0,488.0,491.0,483.0,472.0,464.0,464.0,469.0,487.0,481.0,492.0,500.0,497.0,487.0,477.0,469.0,484.0,496.0,506.0,512.0,507.0,499.0,482.0,492.0,498.0,510.0,522.0,523.0,516.0,499.0,494.0,493.0,499.0,513.0,522.0,527.0,519.0,501.0,497.0,503.0,515.0,525.0,533.0,527.0,526.0,516.0,515.0,529.0,537.0,541.0,535.0,534.0,523.0,515.0,518.0,524.0,532.0,535.0,526.0,519.0,507.0,497.0,497.0,503.0,523.0,491.0,449.0,405.0,341.0,305.0,271.0,232.0,579.0,590.0,594.0,588.0,579.0,572.0,566.0,582.0,592.0,605.0,618.0,620.0,614.0,594.0,638.0,630.0,626.0,634.0,644.0,655.0,667.0,744.0,737.0,733.0,731.0,737.0,748.0,768.0,658.0,636.0,618.0,591.0,587.0,583.0,565.0,442.0,443.0,438.0,432.0,422.0,411.0,406.0,410.0,422.0,430.0,427.0,419.0,412.0,407.0,425.0,427.0,436.0,453.0,457.0,457.0,442.0,448.0,442.0,437.0,448.0,460.0,469.0,470.0,475.0,471.0,461.0,447.0,442.0,440.0,448.0,461.0,473.0,479.0,470.0,458.0,451.0,448.0,456.0,462.0,470.0,486.0,490.0,490.0,470.0,479.0,469.0,464.0,467.0,476.0,489.0,497.0,506.0,501.0,492.0,476.0,475.0,483.0,502.0,519.0,519.0,515.0,500.0,491.0,490.0,507.0,513.0,522.0,526.0,517.0,506.0,495.0,494.0,510.0,522.0,531.0,538.0,531.0,520.0,502.0,518.0,522.0,528.0,537.0,542.0,540.0,528.0,506.0,499.0,491.0,496.0,505.0,516.0,524.0,672.0,625.0,579.0,519.0,481.0,450.0,407.0,554.0,560.0,567.0,559.0,547.0,541.0,538.0,565.0,575.0,585.0,582.0,571.0,565.0,562.0,593.0,605.0,619.0,635.0,641.0,635.0,621.0,688.0,688.0,695.0,710.0,724.0,736.0,729.0,673.0,653.0,637.0,625.0,623.0,624.0,606.0,465.0,464.0,456.0,437.0,430.0,427.0,431.0,434.0,442.0,445.0,438.0,430.0,421.0,417.0,441.0,453.0,463.0,467.0,464.0,457.0,443.0,456.0,464.0,474.0,481.0,480.0,472.0,461.0,458.0,456.0,457.0,462.0,472.0,480.0,477.0,484.0,477.0,466.0,457.0,459.0,469.0,479.0,484.0,492.0,496.0,489.0,481.0,471.0,472.0,476.0,480.0,490.0,504.0,501.0,493.0,482.0,478.0,481.0,489.0,500.0,508.0,508.0,501.0,492.0,485.0,482.0,491.0,499.0,505.0,510.0,513.0,508.0,500.0,486.0,484.0,489.0,513.0,543.0,543.0,539.0,524.0,517.0,515.0,524.0,486.0,494.0,505.0,512.0,509.0,501.0,488.0,572.0,592.0,620.0,666.0,691.0,700.0,653.0,515.0,528.0,534.0,538.0,545.0,550.0,567.0,586.0,587.0,580.0,569.0,562.0,560.0,573.0,604.0,610.0,612.0,595.0,593.0,597.0,608.0,681.0,692.0,698.0,696.0,689.0,686.0,694.0,708.0,714.0,714.0,704.0,691.0,675.0,649.0,455.0,450.0,451.0,456.0,458.0,455.0,440.0,416.0,410.0,405.0,412.0,421.0,430.0,436.0,452.0,446.0,435.0,427.0,428.0,434.0,449.0,468.0,471.0,468.0,453.0,444.0,441.0,452.0,463.0,470.0,475.0,471.0,462.0,456.0,450.0,456.0,466.0,475.0,485.0,484.0,480.0,461.0,463.0,467.0,476.0,492.0,494.0,492.0,476.0,472.0,475.0,482.0,492.0,500.0,502.0,495.0,508.0,499.0,490.0,481.0,484.0,493.0,512.0,523.0,518.0,509.0,494.0,493.0,492.0,511.0,515.0,522.0,525.0,518.0,511.0,505.0,499.0,509.0,517.0,525.0,517.0,508.0,501.0,499.0,508.0,516.0,527.0,550.0,550.0,543.0,535.0,508.0,500.0,499.0,510.0,519.0,522.0,511.0,500.0,504.0,511.0,538.0,565.0,595.0,651.0,272.0,301.0,342.0,412.0,459.0,499.0,558.0,584.0,586.0,582.0,568.0,562.0,558.0,565.0,580.0,589.0,599.0,608.0,608.0,600.0,590.0,632.0,643.0,655.0,670.0,677.0,681.0,667.0,737.0,730.0,726.0,730.0,740.0,746.0,747.0,584.0,566.0,547.0,512.0,507.0,506.0,508.0,433.0,441.0,443.0,432.0,422.0,415.0,418.0,418.0,429.0,438.0,450.0,452.0,445.0,433.0,441.0,446.0,455.0,468.0,471.0,470.0,456.0,451.0,447.0,449.0,463.0,472.0,475.0,469.0,479.0,476.0,467.0,450.0,450.0,452.0,469.0,475.0,481.0,485.0,475.0,466.0,458.0,457.0,472.0,482.0,491.0,493.0,489.0,482.0,467.0,478.0,474.0,475.0,488.0,497.0,501.0,504.0,506.0,498.0,488.0,480.0,480.0,484.0,503.0,515.0,514.0,507.0,492.0,485.0,489.0,504.0,507.0,515.0,524.0,522.0,516.0,506.0,497.0,498.0,503.0,510.0,527.0,529.0,526.0,505.0,534.0,523.0,515.0,515.0,523.0,537.0,559.0,542.0,530.0,516.0,498.0,507.0,516.0,525.0,529.0,523.0,514.0,525.0,547.0,577.0,622.0,249.0,264.0,294.0,375.0,421.0,463.0,513.0,578.0,589.0,595.0,595.0,587.0,576.0,573.0,591.0,598.0,613.0,621.0,620.0,613.0,599.0,644.0,652.0,663.0,682.0,687.0,692.0,681.0,755.0,748.0,740.0,738.0,743.0,751.0,758.0,571.0,548.0,530.0,508.0,501.0,501.0,499.0,441.0,438.0,431.0,417.0,411.0,413.0,433.0,442.0,447.0,447.0,438.0,429.0,424.0,428.0,436.0,441.0,450.0,464.0,461.0,455.0,442.0,461.0,451.0,444.0,450.0,456.0,466.0,472.0,477.0,483.0,487.0,479.0,468.0,461.0,456.0,462.0,466.0,475.0,487.0,492.0,492.0,470.0,477.0,474.0,476.0,488.0,499.0,504.0,488.0,506.0,499.0,492.0,478.0,477.0,481.0,493.0,506.0,511.0,513.0,501.0,493.0,487.0,489.0,503.0,513.0,518.0,519.0,512.0,504.0,496.0,495.0,503.0,511.0,519.0,516.0,510.0,495.0,499.0,492.0,487.0,500.0,510.0,516.0,517.0,538.0,536.0,528.0,518.0,515.0,518.0,527.0,476.0,482.0,491.0,505.0,506.0,503.0,494.0,507.0,518.0,539.0,586.0,631.0,670.0,689.0,376.0,422.0,456.0,488.0,512.0,531.0,564.0,584.0,585.0,581.0,560.0,556.0,560.0,576.0,610.0,612.0,609.0,593.0,589.0,593.0,608.0,660.0,675.0,687.0,696.0,693.0,687.0,680.0,727.0,731.0,737.0,736.0,728.0,714.0,677.0,513.0,497.0,485.0,478.0,480.0,481.0,472.0,434.0,423.0,417.0,415.0,423.0,433.0,440.0,450.0,455.0,455.0,445.0,436.0,433.0,438.0,461.0,472.0,476.0,479.0,472.0,462.0,450.0,457.0,464.0,475.0,488.0,486.0,481.0,461.0,474.0,467.0,463.0,468.0,476.0,484.0,489.0,494.0,489.0,481.0,467.0,465.0,468.0,490.0,486.0,495.0,501.0,493.0,485.0,476.0,473.0,491.0,501.0,504.0,500.0,495.0,485.0,477.0,490.0,499.0,509.0,507.0,499.0,491.0,486.0,490.0,490.0,494.0,511.0,516.0,518.0,513.0,497.0,491.0,492.0,500.0,511.0,518.0,519.0,543.0,536.0,527.0,529.0,536.0,541.0,543.0,508.0,500.0,493.0,494.0,501.0,511.0,518.0,714.0,718.0,693.0,606.0,563.0,533.0,485.0,574.0,572.0,565.0,547.0,548.0,556.0,573.0,589.0,595.0,593.0,575.0,570.0,570.0,583.0,628.0,636.0,638.0,627.0,623.0,623.0,635.0,696.0,709.0,723.0,737.0,738.0,733.0,727.0,698.0,685.0,676.0,668.0,671.0,669.0,658.0,448.0,432.0,423.0,425.0,432.0,436.0,435.0,417.0,410.0,412.0,419.0,429.0,440.0,440.0,458.0,450.0,441.0,438.0,446.0,456.0,465.0,473.0,476.0,473.0,457.0,452.0,447.0,453.0,463.0,472.0,479.0,477.0,468.0,462.0,457.0,460.0,467.0,476.0,487.0,485.0,480.0,464.0,470.0,476.0,484.0,497.0,501.0,498.0,484.0,491.0,483.0,483.0,492.0,502.0,510.0,504.0,513.0,504.0,495.0,489.0,495.0,502.0,517.0,520.0,513.0,503.0,494.0,494.0,499.0,518.0,523.0,522.0,516.0,506.0,499.0,494.0,503.0,516.0,524.0,527.0,521.0,515.0,509.0,508.0,544.0,553.0,562.0,560.0,549.0,537.0,523.0,492.0,497.0,504.0,518.0,523.0,518.0,507.0,700.0,701.0,682.0,628.0,596.0,572.0,501.0,557.0,551.0,551.0,558.0,567.0,575.0,581.0,591.0,579.0,575.0,567.0,573.0,581.0,600.0,628.0,623.0,617.0,610.0,609.0,612.0,633.0,716.0,722.0,721.0,712.0,708.0,711.0,727.0,691.0,687.0,681.0,659.0,639.0,621.0,600.0,435.0,439.0,446.0,441.0,434.0,422.0,411.0,415.0,418.0,424.0,439.0,447.0,448.0,427.0,444.0,439.0,439.0,457.0,465.0,469.0,456.0,465.0,459.0,453.0,453.0,457.0,467.0,477.0,486.0,479.0,470.0,459.0,463.0,469.0,482.0,501.0,495.0,487.0,472.0,475.0,481.0,495.0,505.0,509.0,506.0,491.0,485.0,481.0,485.0,493.0,504.0,511.0,505.0,498.0,490.0,483.0,492.0,500.0,511.0,514.0,510.0,501.0,487.0,496.0,495.0,497.0,513.0,520.0,519.0,509.0,508.0,503.0,502.0,511.0,521.0,527.0,532.0,554.0,548.0,536.0,519.0,515.0,517.0,533.0,520.0,521.0,513.0,499.0,493.0,491.0,515.0,718.0,702.0,666.0,605.0,563.0,522.0,459.0,542.0,547.0,554.0,570.0,574.0,570.0,558.0,579.0,571.0,565.0,567.0,573.0,584.0,594.0,620.0,611.0,604.0,597.0,601.0,611.0,638.0,684.0,693.0,697.0,693.0,686.0,681.0,687.0,692.0,696.0,696.0,687.0,672.0,656.0,633.0,467.0,462.0,457.0,461.0,466.0,470.0,456.0,437.0,430.0,424.0,434.0,445.0,454.0,455.0,464.0,456.0,448.0,453.0,457.0,469.0,481.0,483.0,473.0,465.0,458.0,460.0,469.0,483.0,481.0,485.0,480.0,466.0,455.0,453.0,457.0,461.0,471.0,482.0,486.0,480.0,470.0,458.0,465.0,463.0,461.0,476.0,484.0,490.0,481.0,470.0,465.0,467.0,476.0,487.0,493.0,492.0,498.0,494.0,485.0,473.0,470.0,476.0,492.0,507.0,505.0,499.0,488.0,482.0,479.0,501.0,510.0,521.0,526.0,521.0,515.0,509.0,515.0,490.0,500.0,504.0,502.0,495.0,488.0,481.0,504.0,520.0,536.0,557.0,575.0,593.0,621.0,287.0,323.0,375.0,483.0,515.0,535.0,545.0,561.0,554.0,547.0,543.0,544.0,553.0,574.0,592.0,592.0,586.0,575.0,569.0,567.0,583.0,647.0,654.0,655.0,643.0,644.0,647.0,662.0,702.0,711.0,719.0,723.0,720.0,707.0,686.0,514.0,507.0,505.0,506.0,504.0,495.0,457.0,420.0,419.0,420.0,431.0,442.0,447.0,438.0,455.0,447.0,441.0,445.0,453.0,462.0,466.0,475.0,465.0,457.0,455.0,459.0,464.0,476.0,469.0,480.0,487.0,483.0,475.0,467.0,458.0,463.0,467.0,475.0,485.0,489.0,486.0,470.0,461.0,466.0,469.0,483.0,491.0,495.0,484.0,500.0,491.0,481.0,478.0,484.0,494.0,502.0,508.0,510.0,506.0,494.0,485.0,482.0,492.0,499.0,508.0,515.0,514.0,506.0,496.0,490.0,504.0,514.0,521.0,519.0,513.0,502.0,494.0,498.0,502.0,509.0,524.0,528.0,524.0,511.0,512.0,510.0,511.0,522.0,530.0,536.0,532.0,534.0,523.0,513.0,503.0,505.0,510.0,519.0,516.0,513.0,504.0,490.0,487.0,491.0,509.0,396.0,369.0,340.0,288.0,245.0,212.0,210.0,544.0,541.0,548.0,564.0,576.0,578.0,568.0,574.0,567.0,563.0,568.0,575.0,586.0,597.0,630.0,625.0,621.0,622.0,632.0,642.0,661.0,726.0,737.0,745.0,737.0,731.0,727.0,729.0,647.0,642.0,639.0,635.0,620.0,605.0,557.0,420.0,417.0,416.0,423.0,433.0,439.0,439.0,440.0,440.0,432.0,420.0,414.0,415.0,423.0,441.0,452.0,458.0,459.0,449.0,441.0,432.0,453.0,463.0,468.0,466.0,462.0,451.0,442.0,451.0,460.0,469.0,471.0,473.0,468.0,454.0,448.0,454.0,460.0,474.0,482.0,481.0,463.0,462.0,463.0,465.0,480.0,490.0,491.0,487.0,489.0,482.0,475.0,471.0,477.0,484.0,497.0,508.0,509.0,500.0,487.0,484.0,483.0,499.0,498.0,510.0,522.0,540.0,541.0,535.0,520.0,490.0,495.0,506.0,515.0,513.0,507.0,492.0,517.0,537.0,568.0,618.0,651.0,681.0,697.0,317.0,368.0,417.0,482.0,514.0,544.0,575.0,593.0,584.0,574.0,569.0,572.0,584.0,595.0,615.0,615.0,609.0,605.0,604.0,610.0,622.0,674.0,697.0,699.0,696.0,686.0,689.0,693.0,744.0,753.0,758.0,757.0,743.0,728.0,711.0,518.0,495.0,495.0,495.0,494.0,487.0,474.0,442.0,433.0,425.0,419.0,422.0,432.0,441.0,459.0,455.0,448.0,441.0,438.0,445.0,452.0,475.0,471.0,465.0,455.0,449.0,451.0,456.0,462.0,479.0,481.0,477.0,466.0,456.0,454.0,456.0,458.0,463.0,472.0,484.0,484.0,480.0,490.0,468.0,464.0,467.0,477.0,487.0,491.0,500.0,485.0,475.0,472.0,479.0,492.0,500.0,490.0,506.0,504.0,497.0,483.0,481.0,483.0,489.0,499.0,508.0,512.0,502.0,493.0,489.0,495.0,513.0,523.0,528.0,521.0,511.0,503.0,515.0,510.0,514.0,522.0,530.0,524.0,513.0,491.0,485.0,490.0,501.0,515.0,518.0,514.0,488.0,444.0,397.0,356.0,306.0,282.0,253.0,571.0,564.0,555.0,550.0,551.0,560.0,568.0,587.0,599.0,594.0,587.0,579.0,576.0,578.0,612.0,620.0,631.0,644.0,650.0,645.0,641.0,722.0,713.0,715.0,720.0,740.0,749.0,755.0,689.0,676.0,655.0,633.0,610.0,604.0,598.0,449.0,450.0,440.0,427.0,414.0,413.0,420.0,418.0,428.0,436.0,443.0,435.0,424.0,417.0,435.0,436.0,446.0,453.0,461.0,464.0,460.0,462.0,453.0,446.0,442.0,450.0,459.0,467.0,468.0,472.0,466.0,457.0,449.0,448.0,456.0,463.0,486.0,486.0,480.0,466.0,459.0,457.0,481.0,493.0,489.0,482.0,470.0,469.0,471.0,485.0,505.0,506.0,499.0,487.0,479.0,478.0,501.0,521.0,514.0,511.0,495.0,493.0,493.0,504.0,521.0,525.0,519.0,509.0,500.0,496.0,501.0,504.0,511.0,519.0,531.0,530.0,523.0,516.0,511.0,516.0,524.0,534.0,533.0,528.0,539.0,527.0,517.0,513.0,516.0,521.0,525.0,521.0,516.0,506.0,500.0,495.0,498.0,507.0,500.0,435.0,397.0,354.0,282.0,238.0,206.0,553.0,567.0,578.0,584.0,576.0,567.0,561.0,578.0,576.0,579.0,589.0,599.0,605.0,609.0,640.0,628.0,624.0,623.0,652.0,660.0,667.0,743.0,743.0,735.0,728.0,727.0,733.0,744.0,674.0,657.0,641.0,620.0,584.0,575.0,569.0,426.0,442.0,443.0,438.0,425.0,416.0,410.0,414.0,418.0,427.0,437.0,444.0,439.0,436.0,449.0,440.0,439.0,441.0,453.0,463.0,469.0,471.0,465.0,456.0,447.0,443.0,450.0,461.0,466.0,468.0,462.0,454.0,445.0,443.0,445.0,458.0,474.0,474.0,471.0,454.0,450.0,449.0,463.0,480.0,487.0,488.0,479.0,473.0,465.0,473.0,469.0,474.0,482.0,497.0,496.0,491.0,499.0,482.0,476.0,477.0,486.0,496.0,503.0,508.0,507.0,498.0,490.0,487.0,491.0,499.0,518.0,517.0,508.0,497.0,495.0,500.0,508.0,513.0,529.0,528.0,520.0,511.0,511.0,517.0,548.0,550.0,542.0,530.0,511.0,510.0,513.0,506.0,524.0,521.0,513.0,499.0,503.0,509.0,483.0,455.0,426.0,392.0,331.0,294.0,253.0,567.0,564.0,562.0,580.0,591.0,593.0,587.0,611.0,606.0,597.0,587.0,587.0,590.0,608.0,642.0,647.0,646.0,639.0,633.0,629.0,641.0,716.0,728.0,739.0,747.0,748.0,740.0,733.0,667.0,664.0,664.0,648.0,631.0,610.0,571.0,425.0,435.0,439.0,440.0,433.0,422.0,408.0,417.0,412.0,412.0,425.0,435.0,443.0,439.0,458.0,449.0,444.0,438.0,441.0,451.0,463.0,468.0,474.0,472.0,456.0,448.0,441.0,446.0,456.0,467.0,472.0,474.0,466.0,454.0,439.0,449.0,447.0,448.0,470.0,479.0,483.0,463.0,492.0,479.0,466.0,460.0,467.0,479.0,492.0,497.0,491.0,481.0,467.0,474.0,485.0,498.0,511.0,501.0,492.0,484.0,490.0,502.0,512.0,516.0,512.0,505.0,493.0,495.0,499.0,517.0,524.0,530.0,530.0,521.0,511.0,508.0,507.0,514.0,522.0,534.0,544.0,538.0,532.0,514.0,542.0,544.0,548.0,557.0,564.0,563.0,548.0,497.0,497.0,503.0,516.0,525.0,530.0,522.0,667.0,610.0,557.0,487.0,454.0,423.0,370.0,582.0,586.0,585.0,575.0,567.0,560.0,566.0,576.0,583.0,603.0,608.0,607.0,593.0,586.0,617.0,617.0,623.0,632.0,644.0,655.0,654.0,723.0,716.0,722.0,736.0,755.0,761.0,763.0,734.0,720.0,703.0,684.0,660.0,654.0,650.0,458.0,454.0,447.0,429.0,416.0,410.0,413.0,425.0,435.0,434.0,425.0,414.0,409.0,411.0,437.0,447.0,453.0,458.0,454.0,446.0,434.0,436.0,458.0,464.0,461.0,452.0,443.0,435.0,438.0,452.0,459.0,467.0,467.0,464.0,456.0,473.0,460.0,454.0,448.0,455.0,464.0,473.0,471.0,487.0,484.0,476.0,460.0,464.0,471.0,492.0,489.0,479.0,473.0,466.0,467.0,476.0,483.0,498.0,497.0,492.0,480.0,472.0,468.0,476.0,479.0,485.0,500.0,504.0,502.0,487.0,519.0,512.0,516.0,527.0,539.0,539.0,532.0,498.0,477.0,478.0,487.0,500.0,508.0,511.0,683.0,708.0,717.0,682.0,643.0,606.0,543.0,563.0,561.0,555.0,545.0,540.0,550.0,565.0,592.0,593.0,587.0,572.0,569.0,574.0,582.0,599.0,608.0,621.0,628.0,631.0,628.0,613.0,680.0,681.0,688.0,720.0,728.0,730.0,722.0,731.0,717.0,702.0,690.0,692.0,694.0,674.0,480.0,467.0,451.0,438.0,434.0,437.0,447.0,423.0,435.0,443.0,442.0,434.0,423.0,409.0,427.0,425.0,432.0,450.0,462.0,464.0,454.0,472.0,465.0,451.0,440.0,441.0,448.0,467.0,475.0,476.0,470.0,446.0,446.0,452.0,467.0,463.0,477.0,484.0,482.0,471.0,461.0,451.0,458.0,465.0,477.0,492.0,498.0,492.0,473.0,472.0,470.0,476.0,489.0,500.0,506.0,499.0,511.0,503.0,492.0,479.0,476.0,484.0,502.0,507.0,516.0,512.0,498.0,489.0,483.0,502.0,511.0,520.0,523.0,511.0,499.0,490.0,491.0,498.0,502.0,512.0,534.0,547.0,553.0,537.0,525.0,510.0,496.0,484.0,493.0,501.0,516.0,523.0,520.0,511.0,503.0,506.0,519.0,609.0,206.0,215.0,242.0,303.0,355.0,410.0,495.0,571.0,586.0,594.0,597.0,587.0,578.0,568.0,588.0,594.0,606.0,623.0,629.0,627.0,615.0,655.0,652.0,652.0,660.0,673.0,689.0,705.0,767.0,761.0,750.0,738.0,741.0,749.0,746.0,566.0,551.0,531.0,506.0,495.0,492.0,493.0,439.0,435.0,430.0,420.0,413.0,410.0,417.0,426.0,437.0,444.0,450.0,447.0,441.0,428.0,443.0,454.0,461.0,472.0,467.0,459.0,445.0,457.0,450.0,450.0,465.0,471.0,477.0,472.0,482.0,479.0,471.0,456.0,452.0,453.0,469.0,493.0,490.0,479.0,468.0,467.0,466.0,477.0,482.0,491.0,494.0,489.0,478.0,471.0,468.0,473.0,479.0,489.0,507.0,503.0,494.0,483.0,483.0,489.0,499.0,513.0,507.0,500.0,490.0,489.0,491.0,501.0,522.0,520.0,512.0,498.0,502.0,500.0,505.0,530.0,537.0,537.0,520.0,539.0,527.0,517.0,519.0,530.0,536.0,540.0,519.0,510.0,500.0,490.0,493.0,501.0,526.0,495.0,451.0,401.0,336.0,300.0,272.0,196.0,586.0,584.0,577.0,566.0,561.0,558.0,587.0,600.0,611.0,616.0,600.0,590.0,585.0,591.0,648.0,663.0,670.0,659.0,651.0,652.0,661.0,754.0,767.0,774.0,766.0,756.0,746.0,739.0,597.0,595.0,594.0,585.0,571.0,551.0,521.0,409.0,403.0,401.0,418.0,429.0,433.0,412.0,435.0,427.0,416.0,409.0,411.0,418.0,442.0,467.0,460.0,450.0,430.0,434.0,445.0,462.0,469.0,474.0,469.0,455.0,444.0,437.0,441.0,444.0,457.0,468.0,474.0,466.0,456.0,443.0,449.0,446.0,449.0,459.0,471.0,479.0,479.0,471.0,461.0,457.0,477.0,487.0,494.0,490.0,488.0,479.0,472.0,467.0,475.0,485.0,500.0,511.0,501.0,491.0,478.0,480.0,489.0,504.0,515.0,522.0,522.0,502.0,491.0,485.0,507.0,527.0,532.0,527.0,507.0,501.0,496.0,519.0,528.0,529.0,524.0,503.0,488.0,481.0,485.0,494.0,508.0,516.0,521.0,517.0,507.0,498.0,279.0,241.0,208.0,238.0,279.0,325.0,394.0,556.0,551.0,556.0,574.0,585.0,592.0,586.0,587.0,581.0,577.0,585.0,596.0,610.0,620.0,658.0,667.0,666.0,655.0,649.0,646.0,660.0,742.0,754.0
762.0,746.0,737.0,729.0,729.0,590.0,579.0,578.0,577.0,575.0,563.0,537.0,417.0,410.0,410.0,424.0,434.0,439.0,423.0,436.0,430.0,422.0,426.0,436.0,447.0,458.0,470.0,459.0,449.0,440.0,440.0,447.0,470.0,478.0,468.0,457.0,447.0,449.0,456.0,476.0,487.0,475.0,465.0,458.0,462.0,472.0,492.0,496.0,491.0,479.0,465.0,468.0,479.0,501.0,502.0,506.0,504.0,489.0,479.0,472.0,478.0,488.0,499.0,508.0,512.0,507.0,495.0,483.0,495.0,486.0,484.0,492.0,501.0,512.0,519.0,520.0,520.0,512.0,495.0,489.0,491.0,503.0,538.0,550.0,553.0,542.0,530.0,518.0,517.0,488.0,497.0,508.0,515.0,509.0,499.0,486.0,697.0,711.0,706.0,667.0,629.0,590.0,505.0,533.0,529.0,532.0,548.0,559.0,565.0,566.0,577.0,568.0,557.0,554.0,560.0,572.0,590.0,617.0,620.0,613.0,604.0,593.0,591.0,618.0,670.0,686.0,701.0,706.0,696.0,691.0,689.0,686.0,686.0,690.0,696.0,689.0,679.0,653.0,439.0,433.0,434.0,447.0,452.0,451.0,424.0,410.0,406.0,411.0,433.0,444.0,446.0,436.0,438.0,431.0,432.0,443.0,453.0,466.0,470.0,477.0,472.0,461.0,445.0,445.0,442.0,464.0,481.0,484.0,478.0,455.0,450.0,453.0,471.0,480.0,488.0,488.0,464.0,456.0,455.0,465.0,485.0,495.0,499.0,494.0,483.0,475.0,465.0,476.0,481.0,493.0,510.0,510.0,506.0,489.0,498.0,488.0,487.0,488.0,500.0,511.0,518.0,509.0,500.0,494.0,495.0,505.0,514.0,527.0,522.0,514.0,502.0,497.0,499.0,508.0,525.0,532.0,527.0,517.0,505.0,500.0,501.0,515.0,516.0,529.0,545.0,557.0,560.0,556.0,540.0,516.0,503.0,493.0,493.0,500.0,512.0,523.0,527.0,524.0,520.0,542.0,570.0,611.0,711.0,302.0,361.0,407.0,461.0,484.0,506.0,565.0,588.0,592.0,594.0,577.0,568.0,563.0,584.0,618.0,623.0,623.0,609.0,599.0,596.0,609.0,680.0,694.0,702.0,704.0,699.0,692.0,689.0,725.0,732.0,737.0,743.0,737.0,722.0,688.0,503.0,487.0,475.0,469.0,474.0,480.0,476.0,434.0,430.0,419.0,404.0,398.0,400.0,418.0,440.0,447.0,451.0,434.0,424.0,421.0,430.0,459.0,467.0,465.0,455.0,444.0,437.0,435.0,449.0,460.0,469.0,475.0,472.0,462.0,445.0,444.0,444.0,451.0,465.0,476.0,481.0,463.0,481.0,470.0,460.0,456.0,462.0,470.0,493.0,500.0,501.0,498.0,479.0,471.0,472.0,485.0,501.0,509.0,514.0,506.0,494.0,483.0,478.0,487.0,490.0,497.0,515.0,520.0,521.0,502.0,514.0,503.0,494.0,491.0,498.0,511.0,527.0,530.0,525.0,516.0,502.0,497.0,497.0,515.0,513.0,523.0,531.0,530.0,520.0,510.0,503.0,505.0,512.0,524.0,540.0,547.0,544.0,525.0,554.0,544.0,536.0,536.0,543.0,551.0,558.0,527.0,516.0,507.0,498.0,498.0,505.0,523.0,724.0,708.0,671.0,586.0,541.0,498.0,430.0,549.0,558.0,568.0,583.0,582.0,576.0,560.0,569.0,573.0,583.0,603.0,608.0,605.0,593.0,629.0,624.0,618.0,612.0,613.0,619.0,640.0,695.0,707.0,719.0,727.0,726.0,720.0,713.0,723.0,721.0,723.0,726.0,728.0,719.0,688.0,456.0,449.0,451.0,459.0,462.0,460.0,437.0,435.0,427.0,416.0,407.0,409.0,417.0,433.0,454.0,453.0,446.0,430.0,426.0,428.0,445.0,453.0,464.0,471.0,466.0,461.0,452.0,442.0,443.0,448.0,455.0,470.0,469.0,464.0,451.0,446.0,450.0,461.0,475.0,475.0,471.0,453.0,458.0,453.0,456.0,467.0,475.0,481.0,481.0,494.0,490.0,484.0,468.0,463.0,464.0,482.0,500.0,503.0,501.0,491.0,483.0,480.0,484.0,480.0,484.0,492.0,505.0,511.0,513.0,501.0,510.0,501.0,494.0,495.0,503.0,511.0,522.0,525.0,527.0,524.0,509.0,499.0,497.0,502.0,500.0,504.0,513.0,527.0,530.0,527.0,508.0,514.0,517.0,527.0,549.0,554.0,558.0,548.0,499.0,496.0,495.0,503.0,515.0,525.0,523.0,527.0,528.0,529.0,529.0,541.0,561.0,635.0,210.0,249.0,304.0,388.0,435.0,467.0,509.0,563.0,567.0,578.0,594.0,586.0,578.0,568.0,585.0,595.0,604.0,617.0,619.0,618.0,608.0,655.0,656.0,659.0,677.0,690.0,702.0,705.0,758.0,748.0,737.0,732.0,732.0,737.0,742.0,548.0,538.0,521.0,496.0,479.0,471.0,465.0,426.0,431.0,431.0,423.0,413.0,404.0,403.0,421.0,431.0,440.0,447.0,447.0,442.0,425.0,441.0,447.0,457.0,467.0,469.0,462.0,442.0,445.0,444.0,447.0,461.0,469.0,472.0,460.0,468.0,458.0,453.0,452.0,460.0,469.0,480.0,486.0,478.0,468.0,458.0,459.0,462.0,479.0,476.0,487.0,494.0,495.0,488.0,480.0,467.0,477.0,472.0,473.0,489.0,496.0,503.0,496.0,491.0,486.0,483.0,491.0,500.0,508.0,514.0,516.0,517.0,510.0,495.0,488.0,489.0,500.0,503.0,513.0,521.0,522.0,516.0,506.0,496.0,511.0,509.0,512.0,524.0,531.0,534.0,533.0,554.0,545.0,532.0,518.0,518.0,521.0,532.0,514.0,521.0,525.0,521.0,513.0,504.0,502.0,683.0,647.0,617.0,584.0,554.0,517.0,437.0,551.0,548.0,553.0,564.0,571.0,576.0,563.0,590.0,582.0,573.0,568.0,578.0,587.0,599.0,633.0,629.0,622.0,612.0,612.0,616.0,633.0,706.0,717.0,722.0,720.0,714.0,708.0,711.0,676.0,679.0,680.0,667.0,651.0,633.0,596.0,444.0,440.0,441.0,454.0,458.0,453.0,437.0,423.0,423.0,429.0,447.0,456.0,457.0,448.0,462.0,455.0,450.0,454.0,462.0,471.0,480.0,475.0,463.0,456.0,456.0,461.0,473.0,484.0,485.0,478.0,468.0,463.0,463.0,473.0,486.0,497.0,500.0,498.0,485.0,478.0,472.0,485.0,491.0,499.0,507.0,502.0,496.0,489.0,476.0,491.0,498.0,510.0,512.0,507.0,499.0,484.0,491.0,500.0,508.0,517.0,510.0,499.0,492.0,500.0,498.0,503.0,513.0,523.0,525.0,509.0,502.0,495.0,493.0,504.0,513.0,521.0,521.0,548.0,543.0,534.0,521.0,520.0,522.0,535.0,507.0,510.0,509.0,492.0,485.0,483.0,499.0,711.0,690.0,647.0,561.0,527.0,498.0,453.0,525.0,538.0,547.0,560.0,561.0,558.0,546.0,550.0,549.0,551.0,567.0,577.0,580.0,573.0,597.0,590.0,583.0,587.0,595.0,611.0,623.0,681.0,673.0,673.0,679.0,691.0,704.0,720.0,713.0,709.0,699.0,672.0,656.0,645.0,635.0,458.0,461.0,459.0,441.0,430.0,417.0,415.0,415.0,427.0,435.0,437.0,434.0,425.0,413.0,429.0,427.0,433.0,450.0,456.0,463.0,456.0,455.0,453.0,457.0,478.0,481.0,479.0,467.0,463.0,456.0,452.0,469.0,479.0,481.0,477.0,478.0,470.0,462.0,460.0,466.0,475.0,485.0,491.0,487.0,479.0,467.0,463.0,465.0,484.0,483.0,492.0,500.0,496.0,488.0,480.0,473.0,479.0,486.0,495.0,508.0,504.0,494.0,479.0,487.0,494.0,506.0,515.0,515.0,510.0,497.0,496.0,493.0,495.0,508.0,514.0,521.0,521.0,523.0,514.0,506.0,500.0,504.0,512.0,527.0,531.0,541.0,546.0,530.0,520.0,513.0,521.0,549.0,555.0,555.0,543.0,529.0,518.0,509.0,510.0,519.0,528.0,534.0,532.0,527.0,516.0,488.0,447.0,411.0,369.0,348.0,325.0,239.0,580.0,574.0,568.0,569.0,577.0,588.0,599.0,613.0,607.0,598.0,589.0,594.0,603.0,620.0,652.0,648.0,643.0,644.0,654.0,666.0,684.0,761.0,756.0,750.0,740.0,744.0,752.0,763.0,629.0,623.0,617.0,588.0,565.0,545.0,530.0,403.0,409.0,419.0,427.0,429.0,421.0,410.0,407.0,409.0,417.0,427.0,435.0,439.0,435.0,451.0,441.0,435.0,431.0,440.0,448.0,456.0,462.0,465.0,463.0,458.0,443.0,440.0,438.0,442.0,449.0,461.0,468.0,469.0,466.0,457.0,443.0,452.0,462.0,469.0,468.0,459.0,451.0,455.0,466.0,478.0,483.0,484.0,479.0,467.0,467.0,473.0,484.0,494.0,498.0,496.0,487.0,489.0,474.0,475.0,484.0,499.0,506.0,503.0,508.0,497.0,489.0,484.0,487.0,497.0,505.0,509.0,528.0,526.0,519.0,502.0,498.0,500.0,519.0,533.0,534.0,529.0,494.0,488.0,488.0,491.0,508.0,516.0,520.0,513.0,505.0,500.0,376.0,335.0,301.0,276.0,217.0,213.0,228.0,582.0,574.0,570.0,561.0,565.0,571.0,581.0,603.0,611.0,615.0,612.0,597.0,592.0,590.0,623.0,633.0,647.0,657.0,665.0,665.0,658.0,736.0,725.0,725.0,732.0,754.0,766.0,771.0,691.0,679.0,662.0,641.0,611.0,598.0,592.0,434.0,439.0,446.0,445.0,444.0,438.0,426.0,427.0,418.0,419.0,422.0,434.0,445.0,449.0,469.0,453.0,445.0,445.0,453.0,463.0,472.0,481.0,477.0,467.0,457.0,455.0,456.0,471.0,461.0,471.0,481.0,488.0,483.0,478.0,465.0,469.0,474.0,484.0,495.0,496.0,492.0,481.0,499.0,492.0,481.0,477.0,479.0,482.0,493.0,515.0,520.0,519.0,507.0,498.0,489.0,496.0,509.0,516.0,519.0,514.0,506.0,497.0,493.0,494.0,497.0,507.0,520.0,524.0,520.0,509.0,506.0,505.0,511.0,545.0,552.0,550.0,539.0,497.0,490.0,491.0,514.0,518.0,519.0,511.0,510.0,503.0,518.0,541.0,569.0,623.0,657.0,295.0,402.0,443.0,482.0,523.0,544.0,555.0,584.0,580.0,573.0,563.0,556.0,559.0,567.0,594.0,607.0,605.0,597.0,585.0,584.0,588.0,641.0,654.0,665.0,673.0,671.0,668.0,662.0,714.0,713.0,720.0,729.0,727.0,715.0,701.0,509.0,491.0,491.0,492.0,490.0,480.0,465.0,416.0,417.0,426.0,435.0,438.0,430.0,424.0,428.0,439.0,448.0,456.0,461.0,458.0,452.0,455.0,442.0,446.0,453.0,470.0,473.0,470.0,478.0,461.0,453.0,450.0,456.0,465.0,476.0,475.0,480.0,473.0,467.0,454.0,455.0,459.0,464.0,484.0,487.0,484.0,472.0,462.0,458.0,465.0,466.0,473.0,482.0,493.0,493.0,487.0,480.0,471.0,473.0,481.0,495.0,498.0,497.0,500.0,493.0,483.0,476.0,479.0,486.0,496.0,507.0,502.0,493.0,485.0,487.0,494.0,502.0,517.0,511.0,506.0,501.0,507.0,516.0,526.0,510.0,512.0,510.0,504.0,488.0,482.0,484.0,489.0,512.0,518.0,520.0,516.0,513.0,519.0,245.0,266.0,315.0,367.0,452.0,479.0,497.0,549.0,567.0,577.0,581.0,576.0,566.0,560.0,575.0,571.0,578.0,589.0,604.0,609.0,605.0,652.0,640.0,642.0,651.0,668.0,682.0,689.0,751.0,745.0,737.0,726.0,715.0,713.0,717.0,548.0,539.0,524.0,509.0,480.0,471.0,465.0,417.0,438.0,440.0,435.0,423.0,416.0,408.0,422.0,427.0,440.0,446.0,452.0,443.0,434.0,447.0,445.0,451.0,457.0,473.0,475.0,473.0,477.0,454.0,452.0,455.0,466.0,475.0,480.0,479.0,472.0,466.0,459.0,454.0,458.0,467.0,473.0,480.0,475.0,469.0,458.0,458.0,462.0,474.0,497.0,498.0,492.0,477.0,472.0,471.0,479.0,490.0,499.0,504.0,492.0,483.0,478.0,480.0,494.0,502.0,504.0,494.0,487.0,486.0,490.0,501.0,510.0,519.0,520.0,511.0,503.0,507.0,501.0,501.0,506.0,518.0,525.0,528.0,527.0,519.0,510.0,504.0,503.0,509.0,519.0,524.0,534.0,539.0,537.0,528.0,521.0,516.0,542.0,557.0,567.0,569.0,561.0,549.0,535.0,505.0,504.0,511.0,522.0,532.0,533.0,524.0,682.0,669.0,642.0,608.0,550.0,528.0,495.0,582.0,555.0,551.0,556.0,568.0,578.0,586.0,603.0,586.0,580.0,575.0,593.0,601.0,611.0,635.0,629.0,624.0,622.0,636.0,651.0,660.0,731.0,732.0,726.0,724.0,727.0,740.0,750.0,695.0,684.0,666.0,646.0,617.0,607.0,598.0,436.0,444.0,438.0,428.0,411.0,405.0,406.0,415.0,425.0,435.0,441.0,437.0,428.0,420.0,431.0,439.0,450.0,457.0,461.0,458.0,451.0,456.0,449.0,444.0,445.0,457.0,466.0,474.0,476.0,463.0,455.0,451.0,456.0,466.0,475.0,481.0,484.0,478.0,470.0,461.0,463.0,469.0,473.0,493.0,495.0,486.0,473.0,469.0,466.0,479.0,501.0,502.0,496.0,482.0,474.0,472.0,482.0,504.0,509.0,509.0,496.0,487.0,482.0,485.0,503.0,513.0,518.0,514.0,508.0,497.0,498.0,492.0,499.0,508.0,520.0,523.0,518.0,513.0,496.0,498.0,503.0,515.0,522.0,525.0,529.0,512.0,502.0,501.0,507.0,516.0,527.0,565.0,567.0,560.0,549.0,534.0,530.0,535.0,509.0,524.0,526.0,515.0,505.0,496.0,495.0,710.0,667.0,623.0,575.0,493.0,451.0,413.0,553.0,577.0,582.0,581.0,571.0,562.0,555.0,571.0,585.0,596.0,603.0,604.0,598.0,590.0,616.0,633.0,645.0,653.0,656.0,653.0,649.0,724.0,728.0,738.0,748.0,763.0,767.0,766.0,715.0,671.0,656.0,645.0,638.0,634.0,628.0,446.0,421.0,414.0,409.0,424.0,430.0,433.0,430.0,417.0,410.0,404.0,421.0,432.0,439.0,456.0,436.0,432.0,430.0,451.0,460.0,463.0,461.0,438.0,437.0,441.0,454.0,465.0,467.0,475.0,476.0,469.0,461.0,449.0,450.0,453.0,459.0,480.0,488.0,490.0,480.0,472.0,465.0,468.0,477.0,488.0,496.0,494.0,489.0,480.0,487.0,481.0,489.0,499.0,508.0,506.0,499.0,495.0,489.0,483.0,485.0,494.0,506.0,513.0,521.0,509.0,499.0,493.0,496.0,503.0,512.0,520.0,519.0,509.0,501.0,496.0,501.0,508.0,513.0,530.0,533.0,533.0,520.0,513.0,511.0,516.0,521.0,525.0,527.0,514.0,502.0,492.0,501.0,497.0,497.0,501.0,515.0,523.0,528.0,491.0,400.0,361.0,322.0,276.0,245.0,235.0,550.0,559.0,568.0,574.0,569.0,564.0,555.0,574.0,565.0,573.0,582.0,594.0,597.0,594.0,622.0,612.0,609.0,604.0,630.0,640.0,649.0,721.0,715.0,709.0,708.0,727.0,740.0,746.0,664.0,626.0,604.0,588.0,565.0,562.0,561.0,437.0,447.0,446.0,437.0,420.0,414.0,413.0,419.0,425.0,434.0,447.0,450.0,446.0,441.0,447.0,441.0,447.0,455.0,468.0,463.0,454.0,465.0,448.0,451.0,460.0,478.0,480.0,474.0,477.0,468.0,460.0,456.0,461.0,471.0,480.0,480.0,488.0,484.0,476.0,466.0,459.0,461.0,471.0,494.0,498.0,494.0,483.0,474.0,471.0,475.0,492.0,501.0,506.0,492.0,484.0,481.0,489.0,496.0,505.0,514.0,505.0,496.0,488.0,493.0,492.0,497.0,506.0,518.0,522.0,516.0,512.0,499.0,502.0,512.0,525.0,531.0,530.0,551.0,523.0,513.0,510.0,517.0,526.0,534.0,518.0,513.0,508.0,499.0,495.0,498.0,508.0,617.0,587.0,556.0,515.0,401.0,363.0,337.0,553.0,575.0,576.0,571.0,552.0,553.0,559.0,576.0,599.0,601.0,597.0,579.0,575.0,576.0,612.0,631.0,642.0,649.0,650.0,645.0,637.0,712.0,716.0,726.0,742.0,756.0,754.0,748.0,678.0,634.0,619.0,611.0,605.0,602.0,592.0,452.0,429.0,419.0,413.0,423.0,430.0,438.0,439.0,417.0,416.0,416.0,429.0,442.0,448.0,462.0,451.0,441.0,437.0,440.0,450.0,459.0,470.0,473.0,472.0,466.0,452.0,446.0,444.0,457.0,475.0,472.0,466.0,452.0,445.0,446.0,453.0,462.0,475.0,479.0,479.0,471.0,464.0,471.0,464.0,463.0,469.0,483.0,490.0,494.0,499.0,495.0,486.0,477.0,474.0,479.0,490.0,508.0,509.0,500.0,492.0,484.0,486.0,494.0,511.0,518.0,520.0,515.0,508.0,501.0,493.0,496.0,502.0,510.0,526.0,524.0,518.0,506.0,514.0,510.0,512.0,522.0,531.0,537.0,526.0,528.0,522.0,517.0,522.0,530.0,537.0,546.0,548.0,536.0,523.0,516.0,514.0,519.0,525.0,534.0,531.0,527.0,518.0,506.0,511.0,519.0,404.0,327.0,287.0,242.0,210.0,222.0,262.0,574.0,596.0,598.0,591.0,574.0,571.0,569.0,585.0,605.0,614.0,620.0,616.0,609.0,599.0,641.0,639.0,647.0,657.0,674.0,682.0,681.0,756.0,752.0,744.0,734.0,735.0,742.0,756.0,638.0,623.0,603.0,567.0,552.0,542.0,538.0,434.0,438.0,434.0,423.0,411.0,406.0,409.0,415.0,425.0,436.0,441.0,434.0,426.0,414.0,434.0,443.0,453.0,462.0,461.0,451.0,433.0,440.0,434.0,439.0,457.0,464.0,463.0,456.0,465.0,441.0,444.0,451.0,470.0,470.0,464.0,465.0,454.0,444.0,444.0,449.0,458.0,464.0,471.0,482.0,477.0,468.0,453.0,454.0,459.0,478.0,481.0,485.0,477.0,471.0,460.0,457.0,469.0,473.0,482.0,497.0,502.0,497.0,489.0,489.0,488.0,487.0,499.0,509.0,513.0,508.0,513.0,506.0,497.0,494.0,496.0,508.0,525.0,530.0,531.0,525.0,516.0,507.0,506.0,504.0,539.0,565.0,564.0,560.0,541.0,541.0,543.0,507.0,526.0,533.0,527.0,504.0,504.0,504.0,581.0,692.0,725.0,737.0,639.0,595.0,565.0,501.0,516.0,532.0,550.0,572.0,576.0,572.0,570.0,567.0,565.0,574.0,584.0,596.0,600.0,619.0,609.0,601.0,600.0,611.0,622.0,633.0,696.0,697.0,694.0,685.0,685.0,691.0,712.0,733.0,729.0,719.0,688.0,678.0,668.0,664.0,483.0,476.0,465.0,445.0,437.0,433.0,446.0,418.0,423.0,437.0,448.0,448.0,442.0,426.0,440.0,442.0,454.0,471.0,472.0,468.0,453.0,472.0,462.0,455.0,450.0,458.0,469.0,482.0,475.0,467.0,458.0,456.0,462.0,472.0,485.0,487.0,482.0,475.0,462.0,459.0,463.0,488.0,493.0,489.0,485.0,468.0,461.0,463.0,484.0,493.0,500.0,499.0,488.0,481.0,471.0,473.0,473.0,475.0,483.0,499.0,502.0,499.0,486.0,482.0,481.0,487.0,500.0,508.0,509.0,497.0,500.0,492.0,489.0,491.0,500.0,510.0,517.0,535.0,526.0,524.0,519.0,524.0,531.0,547.0,512.0,511.0,504.0,493.0,487.0,486.0,494.0,485.0,493.0,520.0,536.0,554.0,591.0,618.0,262.0,322.0,386.0,442.0,509.0,525.0,532.0,558.0,548.0,551.0,560.0,572.0,576.0,577.0,598.0,593.0,585.0,578.0,575.0,586.0,596.0,639.0,655.0,661.0,662.0,653.0,648.0,649.0,713.0,715.0,723.0,732.0,742.0,738.0,726.0,556.0,517.0,512.0,511.0,511.0,503.0,493.0,428.0,406.0,408.0,411.0,435.0,434.0,428.0,442.0,435.0,425.0,422.0,431.0,440.0,453.0,471.0,461.0,455.0,448.0,447.0,451.0,460.0,461.0,477.0,474.0,464.0,450.0,446.0,444.0,449.0,453.0,464.0,475.0,483.0,476.0,464.0,477.0,456.0,455.0,463.0,478.0,487.0,491.0,500.0,485.0,474.0,469.0,472.0,482.0,494.0,501.0,506.0,496.0,487.0,477.0,480.0,486.0,500.0,514.0,509.0,499.0,487.0,483.0,487.0,494.0,514.0,515.0,510.0,490.0,488.0,494.0,498.0,521.0,524.0,522.0,501.0,498.0,500.0,507.0,515.0,524.0,531.0,528.0,521.0,512.0,514.0,520.0,530.0,539.0,545.0,546.0,543.0,515.0,496.0,499.0,506.0,517.0,515.0,509.0,510.0,494.0,493.0,503.0,523.0,539.0,560.0,254.0,216.0,239.0,282.0,395.0,456.0,502.0,590.0,577.0,569.0,564.0,567.0,576.0,586.0,610.0,597.0,590.0,589.0,595.0,606.0,615.0,675.0,680.0,681.0,676.0,669.0,668.0,677.0,740.0,750.0,758.0,762.0,757.0,746.0,734.0,556.0,516.0,517.0,516.0,514.0,506.0,494.0,417.0,404.0,407.0,414.0,433.0,432.0,425.0,434.0,421.0,428.0,434.0,452.0,452.0,449.0,455.0,444.0,448.0,456.0,471.0,473.0,471.0,478.0,470.0,461.0,454.0,454.0,462.0,472.0,486.0,468.0,460.0,457.0,461.0,470.0,480.0,489.0,487.0,480.0,469.0,464.0,468.0,480.0,484.0,496.0,501.0,500.0,494.0,486.0,477.0,476.0,484.0,492.0,501.0,498.0,489.0,481.0,489.0,483.0,484.0,490.0,503.0,511.0,510.0,509.0,516.0,511.0,503.0,489.0,488.0,493.0,505.0,519.0,514.0,506.0,491.0,491.0,495.0,508.0,522.0,522.0,517.0,500.0,495.0,497.0,521.0,552.0,552.0,544.0,532.0,528.0,531.0,503.0,517.0,519.0,516.0,506.0,497.0,497.0,506.0,550.0,577.0,609.0,649.0,672.0,694.0,422.0,528.0,553.0,567.0,570.0,563.0,555.0,567.0,562.0,568.0,586.0,594.0,596.0,578.0,608.0,600.0,596.0,592.0,598.0,608.0,622.0,688.0,690.0,689.0,680.0,678.0,677.0,691.0,749.0,755.0,758.0,749.0,734.0,720.0,697.0,496.0,500.0,497.0,494.0,481.0,465.0,441.0,413.0,409.0,408.0,417.0,428.0,435.0,436.0,453.0,452.0,445.0,429.0,425.0,426.0,444.0,463.0,468.0,471.0,463.0,452.0,446.0,448.0,463.0,474.0,477.0,473.0,466.0,458.0,450.0,454.0,458.0,467.0,482.0,486.0,487.0,471.0,467.0,461.0,463.0,478.0,489.0,493.0,482.0,493.0,484.0,478.0,475.0,479.0,486.0,501.0,510.0,508.0,504.0,488.0,482.0,484.0,498.0,516.0,519.0,516.0,500.0,492.0,491.0,501.0,502.0,507.0,516.0,528.0,527.0,522.0,505.0,504.0,510.0,513.0,528.0,533.0,533.0,520.0,520.0,517.0,516.0,525.0,532.0,539.0,538.0,536.0,526.0,519.0,514.0,516.0,521.0,527.0,516.0,508.0,505.0,503.0,511.0,520.0,534.0,377.0,340.0,296.0,207.0,214.0,252.0,360.0,580.0,583.0,578.0,564.0,558.0,554.0,566.0,595.0,600.0,597.0,584.0,578.0,575.0,589.0,656.0,663.0,663.0,655.0,653.0,648.0,656.0,727.0,738.0,745.0,759.0,756.0,748.0,734.0,558.0,549.0,546.0,543.0,535.0,525.0,492.0,407.0,407.0,411.0,428.0,432.0,433.0,419.0,419.0,418.0,426.0,446.0,451.0,451.0,439.0,461.0,454.0,446.0,440.0,445.0,456.0,468.0,472.0,469.0,462.0,445.0,441.0,444.0,462.0,475.0,480.0,479.0,468.0,461.0,450.0,465.0,465.0,471.0,480.0,486.0,479.0,473.0,462.0,471.0,474.0,496.0,499.0,497.0,480.0,476.0,478.0,486.0,496.0,505.0,509.0,498.0,489.0,482.0,487.0,497.0,506.0,514.0,508.0,499.0,502.0,494.0,488.0,488.0,501.0,511.0,515.0,518.0,510.0,499.0,495.0,494.0,504.0,512.0,521.0,530.0,533.0,528.0,519.0,509.0,501.0,525.0,525.0,532.0,537.0,537.0,523.0,512.0,495.0,491.0,498.0,508.0,518.0,518.0,511.0,555.0,454.0,411.0,375.0,328.0,307.0,274.0,587.0,573.0,566.0,563.0,566.0,576.0,585.0,612.0,607.0,598.0,592.0,591.0,599.0,610.0,656.0,657.0,650.0,645.0,648.0,656.0,669.0,762.0,764.0,755.0,749.0,745.0,749.0,759.0,620.0,583.0,562.0,543.0,521.0,518.0,516.0,431.0,439.0,436.0,426.0,413.0,409.0,413.0,416.0,437.0,443.0,448.0,432.0,425.0,419.0,437.0,460.0,466.0,466.0,454.0,446.0,441.0,454.0,444.0,446.0,455.0,469.0,473.0,472.0,465.0,451.0,450.0,454.0,471.0,476.0,478.0,476.0,482.0,474.0,467.0,454.0,459.0,464.0,477.0,484.0,492.0,496.0,486.0,478.0,472.0,478.0,489.0,500.0,507.0,505.0,497.0,489.0,492.0,503.0,511.0,517.0,516.0,510.0,501.0,503.0,500.0,506.0,514.0,529.0,525.0,517.0,526.0,519.0,510.0,505.0,508.0,516.0,525.0,533.0,537.0,529.0,518.0,510.0,512.0,518.0,552.0,563.0,560.0,551.0,544.0,538.0,537.0,495.0,500.0,508.0,518.0,526.0,520.0,513.0,540.0,566.0,594.0,637.0,719.0,744.0,740.0,432.0,503.0,512.0,522.0,541.0,557.0,568.0,585.0,573.0,564.0,558.0,574.0,584.0,588.0,612.0,611.0,604.0,597.0,589.0,592.0,600.0,662.0,675.0,684.0,689.0,684.0,678.0,676.0,709.0,721.0,724.0,717.0,696.0,678.0,664.0,474.0,464.0,460.0,456.0,466.0,465.0,443.0,407.0,409.0,415.0,428.0,438.0,440.0,432.0,432.0,430.0,431.0,451.0,459.0,463.0,451.0,460.0,451.0,447.0,457.0,467.0,473.0,477.0,477.0,468.0,461.0,449.0,450.0,454.0,476.0,477.0,483.0,483.0,472.0,464.0,456.0,459.0,462.0,468.0,479.0,489.0,485.0,477.0,465.0,476.0,474.0,473.0,486.0,494.0,499.0,498.0,506.0,502.0,492.0,484.0,478.0,481.0,497.0,507.0,511.0,508.0,492.0,485.0,484.0,493.0,514.0,516.0,513.0,500.0,491.0,491.0,498.0,502.0,511.0,521.0,523.0,518.0,510.0,498.0,511.0,516.0,524.0,530.0,528.0,524.0,518.0,512.0,507.0,510.0,512.0,517.0,520.0,509.0,507.0,497.0,489.0,506.0,519.0,527.0,533.0,280.0,233.0,197.0,211.0,257.0,320.0,435.0,578.0,568.0,564.0,562.0,567.0,575.0,593.0,610.0,607.0,598.0,588.0,591.0,596.0,616.0,670.0,676.0,676.0,664.0,660.0,663.0,672.0,754.0,762.0,767.0,758.0,748.0,739.0,732.0,551.0,548.0,548.0,527.0,514.0,494.0,464.0,404.0,409.0,420.0,431.0,430.0,421.0,401.0,418.0,415.0,415.0,425.0,434.0,442.0,443.0,464.0,460.0,452.0,438.0,435.0,439.0,447.0,455.0,465.0,467.0,464.0,458.0,448.0,442.0,455.0,464.0,473.0,475.0,470.0,462.0,449.0,454.0,454.0,461.0,475.0,483.0,486.0,473.0,470.0,464.0,466.0,477.0,488.0,492.0,496.0,498.0,488.0,481.0,477.0,483.0,492.0,511.0,511.0,515.0,514.0,505.0,495.0,489.0,489.0,494.0,505.0,514.0,524.0,520.0,510.0,492.0,498.0,502.0,509.0,524.0,528.0,525.0,517.0,516.0,508.0,503.0,507.0,516.0,525.0,530.0,546.0,539.0,532.0,532.0,540.0,547.0,558.0,518.0,512.0,506.0,495.0,496.0,502.0,510.0,553.0,587.0,618.0,677.0,696.0,703.0,645.0,464.0,501.0,530.0,559.0,564.0,557.0,544.0,568.0,563.0,559.0,570.0,580.0,588.0,594.0,608.0,602.0,594.0,589.0,599.0,609.0,628.0,681.0,688.0,689.0,680.0,675.0,676.0,692.0,733.0,742.0,750.0,737.0,721.0,708.0,694.0,503.0,504.0,501.0,489.0,473.0,458.0,443.0,420.0,429.0,440.0,446.0,448.0,431.0,421.0,436.0,448.0,458.0,464.0,460.0,453.0,446.0,452.0,452.0,455.0,465.0,477.0,479.0,476.0,484.0,461.0,458.0,462.0,475.0,487.0,489.0,492.0,488.0,479.0,471.0,465.0,468.0,476.0,482.0,504.0,504.0,498.0,482.0,475.0,476.0,485.0,507.0,512.0,510.0,502.0,494.0,483.0,490.0,496.0,505.0,516.0,514.0,506.0,490.0,494.0,499.0,510.0,522.0,520.0,513.0,492.0,495.0,502.0,509.0,522.0,522.0,515.0,496.0,509.0,519.0,531.0,547.0,549.0,546.0,528.0,486.0,484.0,483.0,493.0,503.0,510.0,509.0,509.0,507.0,509.0,557.0,594.0,635.0,702.0,366.0,409.0,442.0,465.0,486.0,533.0,549.0,569.0,560.0,551.0,546.0,548.0,558.0,567.0,578.0,593.0,591.0,584.0,580.0,586.0,597.0,661.0,671.0,667.0,661.0,668.0,679.0,693.0,718.0,719.0,712.0,701.0,673.0,663.0,659.0,471.0,467.0,468.0,471.0,468.0,463.0,451.0,424.0,405.0,400.0,404.0,428.0,432.0,430.0,440.0,420.0,421.0,427.0,450.0,452.0,451.0,462.0,454.0,445.0,438.0,439.0,444.0,454.0,456.0,465.0,469.0,468.0,460.0,448.0,442.0,445.0,454.0,465.0,471.0,474.0,467.0,461.0,457.0,460.0,470.0,478.0,484.0,478.0,468.0,471.0,470.0,471.0,476.0,494.0,501.0,503.0,507.0,505.0,498.0,486.0,478.0,477.0,483.0,497.0,519.0,519.0,513.0,500.0,495.0,496.0,504.0,525.0,532.0,533.0,524.0,516.0,502.0,504.0,504.0,508.0,522.0,529.0,529.0,523.0,542.0,535.0,532.0,533.0,541.0,551.0,561.0,517.0,507.0,498.0,495.0,497.0,505.0,517.0,526.0,545.0,566.0,600.0,622.0,644.0,677.0,378.0,440.0,491.0,548.0,559.0,559.0,549.0,562.0,567.0,577.0,587.0,593.0,593.0,578.0,599.0,593.0,593.0,598.0,607.0,621.0,632.0,684.0,681.0,677.0,671.0,673.0,679.0,708.0,762.0,764.0,759.0,744.0,731.0,719.0,715.0,508.0,507.0,510.0,490.0,474.0,456.0,440.0,405.0,405.0,412.0,426.0,432.0,435.0,428.0,432.0,424.0,417.0,422.0,430.0,443.0,452.0,462.0,457.0,448.0,436.0,436.0,441.0,463.0,459.0,466.0,472.0,467.0,460.0,449.0,441.0,448.0,455.0,465.0,479.0,478.0,468.0,451.0,456.0,457.0,464.0,483.0,488.0,489.0,466.0,467.0,465.0,472.0,483.0,490.0,496.0,491.0,490.0,480.0,476.0,479.0,485.0,493.0,505.0,514.0,509.0,485.0,481.0,485.0,500.0,509.0,518.0,502.0,494.0,491.0,493.0,502.0,512.0,522.0,526.0,521.0,512.0,497.0,496.0,505.0,513.0,527.0,525.0,516.0,501.0,505.0,512.0,523.0,553.0,553.0,545.0,530.0,529.0,540.0,499.0,518.0,521.0,517.0,497.0,492.0,497.0,505.0,553.0,583.0,613.0,664.0,686.0,696.0,409.0,456.0,500.0,530.0,564.0,568.0,568.0,577.0,568.0,575.0,585.0,597.0,602.0,600.0,614.0,604.0,600.0,594.0,607.0,617.0,630.0,693.0,684.0,682.0,679.0,703.0,716.0,726.0,761.0,758.0,745.0,731.0,712.0,707.0,706.0,512.0,509.0,502.0,487.0,462.0,453.0,450.0,439.0,447.0,442.0,432.0,421.0,419.0,423.0,438.0,462.0,467.0,464.0,451.0,442.0,440.0,454.0,450.0,453.0,460.0,480.0,481.0,474.0,478.0,471.0,459.0,451.0,448.0,456.0,468.0,484.0,470.0,461.0,454.0,457.0,467.0,478.0,490.0,495.0,495.0,487.0,477.0,467.0,468.0,478.0,503.0,506.0,504.0,490.0,481.0,477.0,479.0,501.0,508.0,510.0,506.0,499.0,490.0,500.0,491.0,486.0,489.0,502.0,510.0,514.0,510.0,487.0,488.0,490.0,506.0,516.0,522.0,544.0,518.0,507.0,506.0,509.0,515.0,522.0,508.0,507.0,497.0,488.0,481.0,482.0,492.0,691.0,598.0,557.0,514.0,435.0,401.0,379.0,542.0,562.0,560.0,551.0,542.0,536.0,536.0,556.0,580.0,584.0,581.0,566.0,558.0,556.0,584.0,599.0,612.0,621.0,623.0,619.0,613.0,676.0,682.0,691.0,704.0,724.0,723.0,722.0,655.0,615.0,606.0,603.0,601.0,596.0,583.0,449.0,426.0,418.0,413.0,417.0,425.0,433.0,438.0,445.0,444.0,435.0,421.0,416.0,420.0,446.0,465.0,467.0,463.0,448.0,442.0,446.0,451.0,463.0,470.0,478.0,476.0,470.0,461.0,463.0,459.0,468.0,477.0,488.0,480.0,470.0,472.0,466.0,473.0,482.0,492.0,494.0,488.0,485.0,469.0,472.0,478.0,494.0,499.0,499.0,501.0,492.0,486.0,480.0,480.0,489.0,498.0,516.0,504.0,492.0,485.0,485.0,493.0,507.0,511.0,524.0,514.0,507.0,496.0,492.0,497.0,504.0,521.0,524.0,524.0,514.0,505.0,499.0,511.0,528.0,535.0,536.0,530.0,525.0,514.0,529.0,515.0,518.0,526.0,531.0,525.0,516.0,513.0,497.0,496.0,501.0,517.0,525.0,525.0,513.0,476.0,432.0,383.0,316.0,283.0,255.0,564.0,574.0,583.0,585.0,578.0,567.0,563.0,575.0,585.0,595.0,604.0,608.0,602.0,594.0,623.0,646.0,659.0,667.0,668.0,662.0,657.0,738.0,735.0,744.0,757.0,770.0,774.0,768.0,668.0,615.0,599.0,590.0,587.0,585.0,579.0,451.0,430.0,420.0,414.0,416.0,427.0,435.0,440.0,447.0,449.0,443.0,428.0,422.0,422.0,443.0,466.0,468.0,461.0,449.0,442.0,439.0,444.0,467.0,472.0,473.0,460.0,452.0,444.0,446.0,456.0,467.0,474.0,476.0,469.0,458.0,463.0,458.0,464.0,471.0,485.0,485.0,480.0,494.0,484.0,476.0,472.0,473.0,485.0,495.0,504.0,504.0,497.0,487.0,479.0,484.0,491.0,504.0,517.0,520.0,514.0,500.0,495.0,493.0,505.0,524.0,528.0,530.0,511.0,505.0,503.0,508.0,513.0,522.0,535.0,542.0,534.0,524.0,547.0,539.0,543.0,552.0,567.0,570.0,564.0,524.0,505.0,505.0,513.0,526.0,535.0,535.0,624.0,697.0,713.0,715.0,676.0,643.0,613.0,532.0,551.0,562.0,561.0,552.0,550.0,551.0,559.0,580.0,588.0,589.0,584.0,575.0,565.0,584.0,594.0,605.0,613.0,619.0,616.0,609.0,658.0,653.0,662.0,672.0,697.0,703.0,703.0,720.0,707.0,693.0,682.0,672.0,675.0,677.0,486.0,460.0,444.0,433.0,427.0,435.0,438.0,423.0,430.0,430.0,423.0,408.0,404.0,406.0,427.0,442.0,450.0,453.0,444.0,434.0,429.0,440.0,442.0,448.0,459.0,467.0,472.0,470.0,471.0,465.0,455.0,450.0,451.0,461.0,470.0,469.0,479.0,480.0,480.0,467.0,458.0,450.0,459.0,479.0,485.0,487.0,477.0,471.0,463.0,469.0,467.0,472.0,481.0,497.0,499.0,496.0,499.0,487.0,480.0,480.0,489.0,499.0,506.0,514.0,511.0,505.0,496.0,488.0,491.0,500.0,510.0,522.0,523.0,518.0,514.0,514.0,516.0,499.0,505.0,511.0,516.0,511.0,502.0,495.0,495.0,495.0,499.0,510.0,528.0,536.0,541.0,292.0,217.0,204.0,220.0,316.0,385.0,447.0,589.0,568.0,563.0,562.0,572.0,584.0,591.0,614.0,596.0,593.0,592.0,602.0,614.0,623.0,676.0,677.0,672.0,665.0,662.0,668.0,681.0,750.0,762.0,756.0,746.0,728.0,718.0,717.0,539.0,526.0,527.0,522.0,510.0,496.0,477.0,415.0,409.0,410.0,415.0,431.0,437.0,439.0,454.0,438.0,430.0,428.0,432.0,441.0,449.0,472.0,466.0,454.0,445.0,445.0,450.0,460.0,464.0,475.0,472.0,465.0,452.0,450.0,451.0,453.0,465.0,471.0,482.0,476.0,468.0,458.0,468.0,468.0,476.0,484.0,491.0,490.0,486.0,491.0,472.0,470.0,474.0,488.0,495.0,501.0,503.0,491.0,482.0,476.0,477.0,483.0,494.0,500.0,508.0,510.0,508.0,494.0,488.0,483.0,507.0,536.0,543.0,548.0,544.0,535.0,527.0,492.0,490.0,488.0,499.0,513.0,515.0,512.0,523.0,534.0,555.0,588.0,643.0,684.0,710.0,393.0,443.0,477.0,499.0,538.0,553.0,565.0,580.0,585.0,575.0,570.0,566.0,574.0,585.0,601.0,618.0,615.0,608.0,598.0,598.0,604.0,665.0,680.0,693.0,700.0,699.0,695.0,688.0,716.0,713.0,719.0,723.0,726.0,719.0,706.0,491.0,473.0,459.0,453.0,453.0,457.0,459.0,432.0,422.0,414.0,406.0,404.0,409.0,419.0,447.0,455.0,450.0,444.0,431.0,427.0,429.0,442.0,447.0,461.0,468.0,469.0,464.0,457.0,465.0,452.0,456.0,463.0,478.0,481.0,477.0,481.0,459.0,457.0,458.0,471.0,484.0,489.0,497.0,481.0,472.0,465.0,472.0,480.0,491.0,501.0,487.0,478.0,471.0,476.0,485.0,496.0,501.0,511.0,503.0,494.0,480.0,482.0,490.0,511.0,516.0,511.0,499.0,491.0,490.0,498.0,514.0,527.0,523.0,513.0,495.0,491.0,496.0,520.0,535.0,550.0,558.0,558.0,546.0,536.0,493.0,487.0,491.0,501.0,519.0,521.0,516.0,527.0,523.0,535.0,568.0,621.0,665.0,706.0,333.0,388.0,435.0,470.0,529.0,551.0,571.0,584.0,594.0,598.0,597.0,582.0,572.0,568.0,588.0,597.0,612.0,622.0,631.0,624.0,615.0,661.0,663.0,676.0,688.0,708.0,711.0,710.0,756.0,743.0,734.0,729.0,742.0,744.0,743.0,544.0,526.0,511.0,491.0,467.0,463.0,463.0,405.0,421.0,426.0,425.0,420.0,408.0,399.0,418.0,411.0,419.0,432.0,446.0,445.0,437.0,451.0,433.0,432.0,439.0,458.0,463.0,464.0,467.0,448.0,440.0,441.0,454.0,464.0,470.0,477.0,462.0,453.0,448.0,452.0,463.0,473.0,474.0,485.0,477.0,467.0,457.0,460.0,467.0,473.0,494.0,495.0,491.0,468.0,468.0,473.0,484.0,503.0,504.0,499.0,477.0,476.0,478.0,484.0,507.0,511.0,510.0,497.0,489.0,484.0,491.0,503.0,511.0,519.0,519.0,511.0,503.0,511.0,502.0,506.0,511.0,524.0,532.0,535.0,560.0,538.0,531.0,533.0,542.0,550.0,554.0,531.0,518.0,510.0,501.0,513.0,523.0,530.0,739.0,685.0,634.0,591.0,519.0,497.0,472.0,583.0,570.0,564.0,557.0,561.0,571.0,581.0,602.0,603.0,600.0,590.0,575.0,577.0,587.0,608.0,623.0,635.0,643.0,643.0,637.0,631.0,702.0,694.0,690.0,690.0,702.0,717.0,730.0,721.0,720.0,713.0,697.0,671.0,659.0,653.0,473.0,484.0,475.0,466.0,443.0,435.0,436.0,426.0,434.0,442.0,449.0,445.0,436.0,427.0,448.0,443.0,445.0,450.0,467.0,473.0,474.0,472.0,462.0,454.0,451.0,455.0,465.0,473.0,477.0,467.0,457.0,451.0,450.0,453.0,464.0,459.0,479.0,479.0,473.0,456.0,456.0,461.0,465.0,487.0,489.0,483.0,464.0,464.0,467.0,480.0,500.0,496.0,487.0,475.0,470.0,471.0,487.0,506.0,511.0,508.0,489.0,481.0,477.0,479.0,484.0,493.0,501.0,507.0,505.0,498.0,508.0,489.0,491.0,496.0,519.0,534.0,538.0,515.0,497.0,485.0,476.0,484.0,493.0,500.0,508.0,509.0,506.0,496.0,488.0,491.0,501.0,276.0,224.0,229.0,252.0,325.0,376.0,422.0,549.0,572.0,577.0,578.0,566.0,557.0,554.0,575.0,573.0,574.0,582.0,593.0,601.0,606.0,651.0,635.0,634.0,636.0,651.0,664.0,676.0,745.0,747.0,746.0,738.0,726.0,725.0,727.0,587.0,583.0,570.0,554.0,527.0,511.0,496.0,416.0,434.0,441.0,441.0,431.0,422.0,415.0,425.0,432.0,442.0,456.0,454.0,447.0,433.0,459.0,450.0,446.0,451.0,461.0,472.0,475.0,479.0,479.0,474.0,466.0,456.0,449.0,453.0,453.0,459.0,468.0,480.0,479.0,472.0,456.0,456.0,453.0,457.0,468.0,476.0,484.0,473.0,483.0,475.0,467.0,466.0,476.0,485.0,492.0,488.0,476.0,475.0,472.0,479.0,489.0,500.0,502.0,491.0,483.0,477.0,479.0,486.0,499.0,500.0,509.0,516.0,511.0,500.0,493.0,488.0,492.0,501.0,512.0,525.0,525.0,519.0,496.0,520.0,525.0,531.0,539.0,537.0,531.0,511.0,491.0,498.0,509.0,518.0,518.0,515.0,497.0,515.0,478.0,445.0,367.0,337.0,304.0,242.0,553.0,554.0,558.0,573.0,581.0,585.0,575.0,582.0,578.0,579.0,605.0,614.0,615.0,608.0,632.0,630.0,629.0,642.0
657.0,669.0,678.0,749.0,739.0,733.0,732.0,741.0,754.0,767.0,634.0,619.0,599.0,558.0,543.0,534.0,533.0,417.0,426.0,436.0,437.0,431.0,421.0,403.0,410.0,416.0,429.0,444.0,448.0,446.0,427.0,438.0,429.0,432.0,444.0,457.0,467.0,466.0,447.0,441.0,441.0,453.0,464.0,475.0,471.0,488.0,478.0,467.0,452.0,452.0,459.0,482.0,488.0,494.0,494.0,480.0,468.0,461.0,463.0,493.0,502.0,507.0,497.0,485.0,476.0,471.0,489.0,501.0,510.0,510.0,500.0,490.0,480.0,485.0,482.0,487.0,504.0,514.0,517.0,506.0,500.0,493.0,488.0,494.0,505.0,515.0,521.0,534.0,539.0,534.0,513.0,503.0,498.0,506.0,527.0,538.0,543.0,538.0,527.0,513.0,492.0,496.0,505.0,515.0,525.0,523.0,513.0,491.0,484.0,451.0,421.0,387.0,359.0,317.0,233.0,555.0,547.0,546.0,557.0,569.0,577.0,585.0,591.0,582.0,571.0,567.0,576.0,589.0,606.0,637.0,634.0,623.0,615.0,616.0,623.0,649.0,734.0,734.0,726.0,713.0,706.0,706.0,732.0,603.0,602.0,595.0,575.0,555.0,531.0,504.0,420.0,428.0,433.0,429.0,417.0,406.0,395.0,408.0,406.0,410.0,430.0,440.0,445.0,435.0,445.0,434.0,431.0,436.0,447.0,458.0,466.0,470.0,459.0,450.0,436.0,439.0,449.0,473.0,472.0,480.0,480.0,464.0,453.0,448.0,448.0,460.0,468.0,480.0,484.0,475.0,465.0,454.0,463.0,469.0,479.0,496.0,502.0,500.0,472.0,479.0,472.0,472.0,488.0,501.0,511.0,497.0,502.0,492.0,485.0,485.0,495.0,506.0,524.0,533.0,525.0,514.0,500.0,500.0,504.0,517.0,525.0,534.0,541.0,539.0,531.0,526.0,532.0,512.0,508.0,508.0,520.0,524.0,524.0,510.0,503.0,496.0,495.0,525.0,537.0,547.0,552.0,223.0,189.0,188.0,267.0,339.0,410.0,489.0,580.0,570.0,563.0,565.0,573.0,586.0,600.0,619.0,620.0,615.0,596.0,589.0,587.0,605.0,660.0,671.0,681.0,683.0,675.0,666.0,662.0,755.0,765.0,765.0,754.0,739.0,725.0,712.0,535.0,531.0,534.0,535.0,530.0,512.0,486.0,419.0,409.0,406.0,419.0,431.0,439.0,440.0,426.0,417.0,414.0,424.0,438.0,448.0,452.0,464.0,455.0,444.0,436.0,441.0,451.0,472.0,477.0,475.0,464.0,453.0,446.0,442.0,455.0,469.0,479.0,480.0,473.0,461.0,453.0,446.0,455.0,460.0,470.0,487.0,488.0,485.0,463.0,465.0,466.0,473.0,494.0,500.0,498.0,469.0,496.0,485.0,476.0,472.0,480.0,492.0,507.0,513.0,520.0,516.0,500.0,491.0,486.0,491.0,497.0,506.0,516.0,526.0,519.0,490.0,492.0,499.0,511.0,526.0,542.0,551.0,541.0,530.0,485.0,495.0,506.0,515.0,516.0,503.0,492.0,495.0,521.0,548.0,587.0,655.0,688.0,708.0,313.0,358.0,401.0,440.0,511.0,538.0,558.0,588.0,568.0,557.0,554.0,559.0,568.0,581.0,601.0,611.0,614.0,612.0,595.0,589.0,589.0,630.0,658.0,673.0,680.0,684.0,674.0,667.0,710.0,731.0,738.0,738.0,713.0,696.0,680.0,487.0,476.0,482.0,484.0,483.0,478.0,463.0,427.0,414.0,407.0,405.0,419.0,430.0,440.0,459.0,450.0,438.0,430.0,431.0,437.0,450.0,468.0,475.0,466.0,454.0,441.0,443.0,450.0,452.0,463.0,474.0,476.0,465.0,452.0,444.0,448.0,448.0,458.0,469.0,479.0,482.0,479.0,470.0,458.0,465.0,475.0,491.0,495.0,489.0,492.0,467.0,468.0,473.0,492.0,500.0,504.0,511.0,493.0,483.0,473.0,471.0,478.0,488.0,503.0,479.0,469.0,466.0,475.0,486.0,495.0,521.0,529.0,528.0,523.0,512.0,507.0,514.0,490.0,521.0,526.0,522.0,511.0,500.0,495.0,493.0,508.0,524.0,542.0,569.0,588.0,604.0,224.0,261.0,312.0,373.0,452.0,500.0,531.0,583.0,577.0,568.0,558.0,552.0,560.0,571.0,589.0,608.0,602.0,592.0,579.0,575.0,580.0,622.0,633.0,648.0,663.0,671.0,671.0,668.0,732.0,722.0,716.0,716.0,727.0,739.0,747.0,594.0,555.0,531.0,513.0,499.0,498.0,500.0,427.0,441.0,433.0,421.0,407.0,404.0,407.0,407.0,414.0,427.0,439.0,449.0,445.0,436.0,455.0,436.0,439.0,445.0,471.0,476.0,476.0,480.0,463.0,456.0,448.0,450.0,461.0,472.0,476.0,486.0,483.0,473.0,454.0,452.0,457.0,462.0,470.0,484.0,493.0,497.0,490.0,480.0,487.0,471.0,473.0,480.0,502.0,509.0,507.0,509.0,505.0,492.0,483.0,474.0,480.0,490.0,506.0,514.0,516.0,499.0,488.0,485.0,489.0,499.0,510.0,520.0,521.0,515.0,506.0,488.0,502.0,507.0,519.0,535.0,531.0,523.0,509.0,522.0,513.0,512.0,528.0,534.0,534.0,520.0,523.0,520.0,509.0,494.0,490.0,494.0,514.0,514.0,480.0,432.0,361.0,319.0,283.0,218.0,543.0,552.0,564.0,577.0,580.0,571.0,552.0,566.0,566.0,571.0,594.0,606.0,610.0,599.0,631.0,624.0,618.0,630.0,647.0,662.0,674.0,748.0,741.0,730.0,726.0,731.0,740.0,757.0,686.0,691.0,692.0,679.0,662.0,638.0,604.0,464.0,450.0,442.0,441.0,451.0,460.0,463.0,455.0,453.0,440.0,421.0,420.0,423.0,434.0,466.0,476.0,478.0,471.0,450.0,446.0,446.0,446.0,459.0,471.0,477.0,477.0,469.0,457.0,453.0,443.0,443.0,449.0,464.0,474.0,477.0,480.0,455.0,449.0,452.0,473.0,483.0,486.0,491.0,490.0,483.0,472.0,460.0,461.0,468.0,474.0,498.0,504.0,498.0,489.0,479.0,469.0,479.0,483.0,490.0,511.0,516.0,516.0,508.0,500.0,492.0,491.0,502.0,514.0,523.0,520.0,524.0,515.0,504.0,501.0,507.0,530.0,541.0,563.0,539.0,527.0,518.0,521.0,531.0,538.0,519.0,510.0,499.0,492.0,488.0,497.0,507.0,620.0,546.0,503.0,455.0,412.0,378.0,347.0,533.0,562.0,572.0,574.0,563.0,553.0,544.0,557.0,571.0,583.0,592.0,596.0,593.0,582.0,620.0,609.0,601.0,598.0,609.0,624.0,637.0,707.0,714.0,709.0,699.0,691.0,697.0,710.0,677.0,674.0,665.0,647.0,605.0,587.0,578.0,428.0,430.0,440.0,446.0,445.0,434.0,420.0,418.0,408.0,414.0,426.0,438.0,444.0,440.0,459.0,438.0,430.0,433.0,444.0,456.0,467.0,470.0,474.0,472.0,464.0,445.0,437.0,436.0,456.0,474.0,477.0,473.0,463.0,451.0,443.0,449.0,448.0,453.0,462.0,481.0,483.0,480.0,489.0,479.0,467.0,459.0,456.0,461.0,481.0,489.0,497.0,495.0,479.0,468.0,462.0,469.0,478.0,487.0,497.0,505.0,502.0,493.0,476.0,474.0,478.0,488.0,507.0,511.0,509.0,482.0,487.0,488.0,499.0,511.0,522.0,520.0,505.0,525.0,516.0,511.0,511.0,526.0,537.0,554.0,522.0,522.0,512.0,493.0,485.0,486.0,513.0,500.0,514.0,524.0,533.0,535.0,535.0,539.0,246.0,204.0,188.0,231.0,293.0,364.0,469.0,578.0,568.0,560.0,558.0,565.0,576.0,598.0,613.0,607.0,597.0,583.0,579.0,584.0,607.0,655.0,668.0,672.0,668.0,662.0,656.0,653.0,736.0,748.0,761.0,768.0,762.0,748.0,725.0,555.0,543.0,539.0,541.0,539.0,528.0,486.0,429.0,417.0,409.0,405.0,412.0,422.0,438.0,453.0,444.0,435.0,424.0,431.0,441.0,458.0,473.0,475.0,471.0,454.0,446.0,442.0,447.0,454.0,468.0,478.0,479.0,474.0,464.0,450.0,447.0,447.0,454.0,475.0,483.0,482.0,466.0,459.0,456.0,459.0,469.0,482.0,491.0,492.0,504.0,497.0,487.0,471.0,468.0,471.0,481.0,483.0,498.0,509.0,516.0,515.0,510.0,492.0,508.0,496.0,492.0,497.0,507.0,517.0,520.0,515.0,505.0,495.0,497.0,505.0,516.0,529.0,535.0,526.0,516.0,502.0,506.0,514.0,535.0,538.0,542.0,540.0,532.0,525.0,515.0,516.0,531.0,538.0,548.0,559.0,557.0,550.0,524.0,495.0,492.0,496.0,510.0,521.0,528.0,516.0,738.0,723.0,683.0,574.0,549.0,526.0,494.0,575.0,575.0,570.0,553.0,542.0,538.0,550.0,567.0,578.0,588.0,588.0,580.0,570.0,561.0,588.0,602.0,615.0,626.0,626.0,619.0,604.0,667.0,675.0,688.0,707.0,719.0,724.0,717.0,659.0,648.0,642.0,648.0,647.0,637.0,604.0,435.0,425.0,418.0,420.0,429.0,438.0,440.0,429.0,418.0,410.0,410.0,419.0,435.0,448.0,463.0,454.0,444.0,432.0,435.0,444.0,465.0,473.0,473.0,464.0,448.0,441.0,442.0,447.0,466.0,477.0,479.0,472.0,450.0,441.0,442.0,446.0,451.0,461.0,485.0,482.0,472.0,457.0,453.0,455.0,465.0,483.0,488.0,489.0,480.0,469.0,462.0,461.0,478.0,489.0,496.0,496.0,497.0,488.0,475.0,469.0,473.0,484.0,508.0,509.0,514.0,498.0,489.0,480.0,476.0,485.0,499.0,513.0,507.0,497.0,483.0,487.0,496.0,514.0,527.0,528.0,520.0,502.0,500.0,504.0,526.0,531.0,540.0,548.0,550.0,541.0,530.0,510.0,492.0,491.0,498.0,517.0,526.0,528.0,719.0,641.0,592.0,557.0,527.0,505.0,479.0,582.0,577.0,565.0,554.0,549.0,552.0,561.0,594.0,602.0,604.0,595.0,585.0,577.0,575.0,606.0,617.0,631.0,644.0,639.0,633.0,622.0,704.0,717.0,732.0,747.0,749.0,744.0,725.0,686.0,675.0,668.0,668.0,669.0,662.0,630.0,440.0,428.0,421.0,421.0,428.0,437.0,445.0,441.0,440.0,434.0,414.0,408.0,410.0,415.0,438.0,462.0,463.0,458.0,438.0,432.0,429.0,436.0,443.0,450.0,463.0,474.0,475.0,467.0,464.0,444.0,441.0,449.0,469.0,477.0,476.0,484.0,458.0,449.0,451.0,462.0,474.0,487.0,489.0,491.0,482.0,470.0,462.0,465.0,476.0,482.0,492.0,501.0,505.0,495.0,483.0,473.0,486.0,483.0,492.0,503.0,513.0,512.0,503.0,498.0,489.0,497.0,510.0,522.0,523.0,518.0,519.0,501.0,495.0,497.0,508.0,520.0,529.0,534.0,531.0,522.0,511.0,501.0,510.0,519.0,530.0,542.0,553.0,558.0,550.0,540.0,532.0,497.0,497.0,507.0,518.0,528.0,520.0,511.0,532.0,524.0,513.0,503.0,496.0,503.0,520.0,390.0,306.0,266.0,244.0,272.0,320.0,383.0,555.0,563.0,577.0,585.0,588.0,582.0,573.0,589.0,573.0,574.0,579.0,607.0,616.0,615.0,644.0,623.0,618.0,620.0,634.0,647.0,663.0,724.0,732.0,724.0,713.0,702.0,702.0,708.0,602.0,588.0,570.0,549.0,517.0,504.0,499.0,427.0,435.0,437.0,431.0,418.0,405.0,396.0,423.0,436.0,444.0,445.0,440.0,426.0,415.0,429.0,428.0,435.0,449.0,462.0,466.0,460.0,458.0,447.0,439.0,436.0,440.0,451.0,472.0,476.0,465.0,455.0,443.0,441.0,449.0,464.0,461.0,473.0,480.0,483.0,474.0,462.0,449.0,455.0,452.0,456.0,475.0,487.0,492.0,483.0,495.0,487.0,476.0,465.0,466.0,477.0,494.0,503.0,503.0,495.0,475.0,470.0,472.0,492.0,503.0,511.0,512.0,503.0,490.0,483.0,492.0,488.0,501.0,513.0,520.0,516.0,508.0,492.0,510.0,511.0,521.0,532.0,542.0,540.0,517.0,501.0,492.0,483.0,472.0,476.0,484.0,505.0,608.0,656.0,690.0,688.0,656.0,615.0,551.0,466.0,483.0,503.0,525.0,531.0,526.0,510.0,520.0,507.0,492.0,487.0,491.0,505.0,524.0,526.0,526.0,518.0,491.0,493.0,503.0,525.0,537.0,553.0,563.0,563.0,558.0,551.0,554.0,561.0,571.0,578.0,581.0,572.0,557.0,523.0,353.0,332.0,321.0,323.0,331.0,337.0,330.0,315.0,315.0,309.0,284.0,275.0,274.0,286.0,316.0,332.0,345.0,342.0,333.0,316.0,307.0,357.0,366.0,379.0,379.0,374.0,362.0,353.0,370.0,379.0,392.0,402.0,392.0,379.0,364.0,394.0,401.0,414.0,415.0,405.0,394.0,386.0,397.0,411.0,422.0,423.0,417.0,406.0,390.0,421.0,428.0,441.0,456.0,465.0,462.0,447.0,455.0,452.0,459.0,472.0,486.0,492.0,491.0,490.0,473.0,465.0,479.0,497.0,515.0,540.0,538.0,527.0,517.0,519.0,527.0,534.0,544.0,563.0,567.0,561.0,542.0,534.0,533.0,543.0,559.0,568.0,581.0,594.0,593.0,582.0,562.0,538.0,539.0,546.0,561.0,572.0,578.0,576.0,620.0,633.0,646.0,688.0,711.0,730.0,738.0,487.0,536.0,573.0,601.0,601.0,597.0,597.0,631.0,648.0,662.0,659.0,644.0,630.0,609.0,663.0,675.0,680.0,678.0,669.0,660.0,653.0,738.0,754.0,764.0,768.0,759.0,747.0,737.0,749.0,760.0,772.0,780.0,778.0,764.0,707.0,521.0,518.0,521.0,536.0,546.0,547.0,524.0,486.0,479.0,475.0,479.0,492.0,502.0,514.0,516.0,510.0,498.0,484.0,484.0,490.0,504.0,535.0,539.0,536.0,518.0,505.0,500.0,515.0,522.0,532.0,536.0,528.0,519.0,511.0,509.0,519.0,532.0,541.0,545.0,537.0,527.0,509.0,515.0,517.0,528.0,552.0,547.0,535.0,513.0,505.0,507.0,515.0,533.0,543.0,545.0,524.0,530.0,521.0,518.0,528.0,538.0,546.0,547.0,528.0,524.0,519.0,519.0,525.0,531.0,545.0,531.0,538.0,538.0,529.0,519.0,509.0,505.0,511.0,511.0,516.0,535.0,540.0,543.0,539.0,536.0,525.0,523.0,525.0,536.0,547.0,552.0,561.0,547.0,534.0,524.0,527.0,535.0,545.0,528.0,536.0,536.0,519.0,510.0,498.0,498.0,522.0,501.0,469.0,373.0,331.0,291.0,241.0,549.0,558.0,567.0,566.0,556.0,550.0,546.0,562.0,571.0,583.0,595.0,595.0,591.0,563.0,591.0,602.0,616.0,636.0,648.0,650.0,638.0,684.0,681.0,685.0,721.0,730.0,729.0,715.0,569.0,557.0,550.0,553.0,556.0,552.0,528.0,458.0,448.0,436.0,411.0,408.0,410.0,424.0,447.0,453.0,446.0,433.0,422.0,417.0,437.0,437.0,447.0,462.0,474.0,464.0,451.0,435.0,443.0,447.0,462.0,481.0,490.0,490.0,475.0,474.0,460.0,449.0,443.0,450.0,463.0,486.0,484.0,472.0,459.0,451.0,453.0,464.0,493.0,475.0,487.0,497.0,492.0,480.0,467.0,456.0,461.0,460.0,468.0,492.0,501.0,504.0,486.0,481.0,478.0,482.0,499.0,505.0,509.0,497.0,504.0,493.0,487.0,497.0,511.0,523.0,520.0,519.0,508.0,498.0,494.0,502.0,513.0,529.0,536.0,532.0,502.0,503.0,510.0,528.0,536.0,543.0,533.0,521.0,512.0,501.0,507.0,516.0,547.0,553.0,554.0,540.0,542.0,548.0,568.0,546.0,540.0,530.0,516.0,512.0,511.0,523.0,555.0,574.0,596.0,619.0,637.0,660.0,686.0,424.0,481.0,527.0,570.0,577.0,570.0,561.0,585.0,576.0,572.0,576.0,587.0,602.0,614.0,621.0,618.0,607.0,585.0,581.0,581.0,597.0,675.0,684.0,684.0,669.0,659.0,652.0,663.0,724.0,734.0,739.0,740.0,730.0,717.0,698.0,519.0,521.0,523.0,516.0,504.0,485.0,452.0,415.0,404.0,400.0,411.0,421.0,433.0,436.0,440.0,430.0,419.0,413.0,418.0,432.0,454.0,452.0,462.0,467.0,451.0,444.0,439.0,443.0,461.0,473.0,478.0,472.0,462.0,452.0,442.0,436.0,444.0,458.0,476.0,479.0,473.0,452.0,461.0,454.0,457.0,462.0,470.0,478.0,479.0,484.0,474.0,463.0,454.0,457.0,470.0,491.0,490.0,489.0,483.0,468.0,465.0,467.0,484.0,480.0,491.0,504.0,512.0,509.0,498.0,480.0,500.0,491.0,485.0,483.0,491.0,502.0,510.0,509.0,508.0,500.0,484.0,482.0,484.0,501.0,505.0,514.0,512.0,504.0,491.0,485.0,498.0,510.0,520.0,527.0,526.0,519.0,511.0,506.0,504.0,504.0,511.0,515.0,509.0,498.0,484.0,496.0,503.0,513.0,530.0,533.0,539.0,570.0,222.0,253.0,304.0,465.0,498.0,511.0,522.0,547.0,551.0,561.0,582.0,587.0,583.0,570.0,579.0,580.0,586.0,612.0,611.0,605.0,596.0,647.0,643.0,645.0,660.0,670.0,684.0,690.0,732.0,722.0,709.0,698.0,701.0,706.0,707.0,527.0,517.0,499.0,474.0,461.0,456.0,460.0,424.0,432.0,435.0,422.0,410.0,402.0,403.0,421.0,429.0,443.0,457.0,458.0,451.0,427.0,448.0,446.0,452.0,468.0,477.0,481.0,472.0,467.0,459.0,456.0,461.0,472.0,481.0,482.0,481.0,473.0,465.0,456.0,457.0,462.0,477.0,496.0,492.0,481.0,468.0,467.0,469.0,482.0,498.0,508.0,513.0,506.0,492.0,486.0,478.0,483.0,482.0,491.0,504.0,510.0,508.0,491.0,506.0,493.0,489.0,500.0,509.0,513.0,513.0,520.0,512.0,502.0,492.0,496.0,503.0,516.0,524.0,527.0,522.0,504.0,493.0,492.0,507.0,512.0,526.0,531.0,532.0,522.0,513.0,512.0,519.0,521.0,524.0,526.0,523.0,511.0,491.0,491.0,501.0,510.0,524.0,525.0,526.0,536.0,298.0,252.0,220.0,239.0,283.0,338.0,416.0,575.0,565.0,555.0,546.0,548.0,552.0,578.0,593.0,595.0,593.0,580.0,572.0,569.0,578.0,617.0,629.0,644.0,657.0,658.0,654.0,645.0,705.0,709.0,719.0,734.0,741.0,744.0,724.0,604.0,581.0,564.0,546.0,545.0,545.0,532.0,444.0,441.0,434.0,414.0,411.0,415.0,435.0,426.0,438.0,447.0,453.0,450.0,443.0,418.0,438.0,437.0,444.0,460.0,469.0,472.0,459.0,473.0,464.0,455.0,450.0,456.0,467.0,482.0,474.0,477.0,473.0,457.0,449.0,442.0,463.0,467.0,479.0,483.0,482.0,477.0,467.0,456.0,459.0,460.0,470.0,484.0,490.0,492.0,479.0,499.0,489.0,477.0,469.0,467.0,472.0,497.0,497.0,503.0,499.0,489.0,483.0,478.0,482.0,483.0,484.0,488.0,501.0,510.0,512.0,504.0,497.0,495.0,489.0,495.0,504.0,514.0,519.0,519.0,508.0,496.0,492.0,495.0,508.0,533.0,561.0,554.0,546.0,525.0,524.0,531.0,543.0,529.0,528.0,517.0,499.0,495.0,499.0,511.0,697.0,716.0,710.0,652.0,613.0,571.0,509.0,542.0,541.0,544.0,566.0,572.0,577.0,568.0,569.0,561.0,560.0,567.0,578.0,589.0,595.0,613.0,605.0,592.0,582.0,583.0,591.0,608.0,676.0,689.0,693.0,686.0,680.0,675.0,692.0,691.0,697.0,703.0,704.0,695.0,678.0,644.0,452.0,448.0,448.0,457.0,460.0,463.0,446.0,425.0,417.0,417.0,425.0,438.0,447.0,450.0,462.0,456.0,447.0,444.0,453.0,463.0,475.0,488.0,487.0,482.0,465.0,458.0,459.0,474.0,489.0,496.0,496.0,481.0,472.0,465.0,467.0,472.0,479.0,488.0,504.0,504.0,497.0,473.0,473.0,477.0,486.0,502.0,507.0,509.0,489.0,504.0,492.0,485.0,482.0,485.0,496.0,512.0,515.0,508.0,495.0,487.0,489.0,498.0,521.0,527.0,527.0,524.0,505.0,499.0,494.0,503.0,503.0,514.0,524.0,530.0,529.0,518.0,495.0,498.0,491.0,496.0,511.0,524.0,530.0,527.0,537.0,519.0,510.0,509.0,518.0,525.0,531.0,520.0,517.0,511.0,494.0,492.0,493.0,503.0,604.0,582.0,556.0,500.0,452.0,403.0,308.0,543.0,550.0,562.0,574.0,575.0,569.0,552.0,563.0,563.0,568.0,585.0,594.0,601.0,598.0,603.0,598.0,596.0,603.0,612.0,625.0,632.0,711.0,703.0,699.0,696.0,700.0,711.0,735.0,701.0,698.0,692.0,657.0,636.0,618.0,598.0,435.0,433.0,438.0,448.0,450.0,444.0,429.0,430.0,420.0,413.0,418.0,423.0,438.0,453.0,461.0,457.0,445.0,425.0,419.0,426.0,445.0,474.0,483.0,488.0,470.0,455.0,446.0,445.0,454.0,467.0,477.0,479.0,476.0,463.0,446.0,450.0,447.0,451.0,472.0,483.0,484.0,471.0,461.0,457.0,462.0,476.0,488.0,494.0,490.0,502.0,500.0,495.0,476.0,469.0,467.0,486.0,477.0,491.0,506.0,514.0,510.0,499.0,480.0,482.0,490.0,501.0,510.0,499.0,491.0,480.0,489.0,481.0,482.0,495.0,505.0,512.0,509.0,508.0,500.0,496.0,497.0,506.0,513.0,530.0,529.0,522.0,509.0,489.0,479.0,475.0,489.0,498.0,507.0,515.0,518.0,512.0,505.0,490.0,385.0,362.0,334.0,293.0,282.0,287.0,319.0,565.0,560.0,561.0,569.0,582.0,588.0,581.0,593.0,582.0,574.0,575.0,583.0,594.0,609.0,641.0,638.0,630.0,619.0,628.0,641.0,657.0,725.0,728.0,721.0,707.0,703.0,702.0,711.0,590.0,587.0,587.0,577.0,561.0,543.0,504.0,430.0,436.0,445.0,454.0,459.0,453.0,431.0,449.0,446.0,449.0,476.0,480.0,479.0,468.0,476.0,467.0,470.0,494.0,502.0,505.0,488.0,494.0,484.0,477.0,489.0,500.0,508.0,507.0,498.0,488.0,478.0,474.0,483.0,493.0,505.0,502.0,501.0,493.0,474.0,472.0,473.0,497.0,484.0,495.0,501.0,506.0,502.0,493.0,480.0,475.0,477.0,483.0,498.0,506.0,507.0,502.0,487.0,481.0,479.0,489.0,502.0,509.0,512.0,506.0,499.0,493.0,497.0,506.0,515.0,522.0,530.0,520.0,509.0,494.0,487.0,487.0,503.0,506.0,507.0,506.0,494.0,485.0,480.0,484.0,476.0,450.0,427.0,394.0,370.0,329.0,263.0,534.0,527.0,526.0,533.0,544.0,556.0,556.0,563.0,554.0,547.0,545.0,549.0,561.0,578.0,608.0,620.0,620.0,610.0,602.0,597.0,603.0,692.0,707.0,715.0,719.0,710.0,702.0,702.0,629.0,620.0,617.0,618.0,615.0,607.0,575.0,423.0,418.0,422.0,430.0,441.0,442.0,435.0,433.0,424.0,419.0,421.0,430.0,443.0,453.0,470.0,472.0,466.0,450.0,443.0,441.0,456.0,470.0,476.0,478.0,464.0,452.0,445.0,450.0,450.0,456.0,469.0,477.0,475.0,470.0,453.0,466.0,459.0,454.0,462.0,471.0,481.0,484.0,480.0,471.0,464.0,467.0,475.0,486.0,493.0,495.0,486.0,476.0,467.0,469.0,477.0,499.0,511.0,506.0,498.0,486.0,484.0,490.0,511.0,505.0,513.0,518.0,507.0,496.0,489.0,492.0,538.0,547.0,554.0,548.0,540.0,531.0,524.0,487.0,490.0,500.0,517.0,519.0,514.0,500.0,574.0,603.0,644.0,712.0,722.0,709.0,594.0,516.0,527.0,540.0,559.0,570.0,576.0,574.0,591.0,579.0,572.0,573.0,581.0,592.0,607.0,625.0,616.0,610.0,607.0,613.0,625.0,650.0,717.0,721.0,722.0,712.0,709.0,712.0,722.0,744.0,747.0,742.0,724.0,705.0,689.0,666.0,480.0,484.0,487.0,481.0,469.0,455.0,435.0,429.0,435.0,444.0,456.0,462.0,459.0,447.0,453.0,448.0,445.0,450.0,459.0,472.0,478.0,479.0,471.0,461.0,456.0,463.0,471.0,484.0,484.0,488.0,487.0,472.0,462.0,456.0,476.0,478.0,488.0,496.0,491.0,480.0,468.0,462.0,469.0,477.0,488.0,498.0,501.0,500.0,483.0,476.0,477.0,484.0,500.0,506.0,504.0,485.0,481.0,479.0,484.0,499.0,510.0,512.0,504.0,514.0,503.0,494.0,488.0,491.0,499.0,518.0,518.0,510.0,501.0,489.0,489.0,496.0,515.0,530.0,534.0,531.0,522.0,516.0,517.0,532.0,490.0,497.0,504.0,503.0,496.0,487.0,478.0,488.0,493.0,503.0,536.0,558.0,581.0,641.0,203.0,234.0,286.0,375.0,439.0,492.0,553.0,583.0,573.0,562.0,559.0,564.0,571.0,590.0,614.0,608.0,601.0,595.0,590.0,594.0,613.0,659.0,676.0,686.0,688.0,684.0,676.0,677.0,740.0,740.0,743.0,759.0,765.0,767.0,746.0,542.0,523.0,511.0,503.0,503.0,498.0,480.0,399.0,393.0,393.0,400.0,412.0,426.0,422.0,431.0,423.0,415.0,412.0,432.0,441.0,445.0,457.0,457.0,451.0,440.0,427.0,423.0,426.0,444.0,463.0,459.0,454.0,442.0,435.0,431.0,437.0,452.0,461.0,468.0,462.0,453.0,445.0,448.0,460.0,470.0,479.0,480.0,476.0,465.0,469.0,476.0,486.0,498.0,503.0,496.0,489.0,484.0,482.0,481.0,491.0,516.0,516.0,507.0,522.0,513.0,504.0,495.0,495.0,502.0,511.0,508.0,532.0,538.0,536.0,512.0,512.0,519.0,509.0,515.0,525.0,530.0,523.0,514.0,501.0,517.0,500.0,504.0,513.0,534.0,539.0,542.0,447.0,408.0,360.0,302.0,239.0,239.0,271.0,573.0,598.0,597.0,590.0,576.0,568.0,566.0,586.0,598.0,612.0,621.0,624.0,616.0,605.0,633.0,631.0,643.0,660.0,679.0,681.0,674.0,743.0,723.0,726.0,729.0,742.0,751.0,759.0,653.0,604.0,582.0,564.0,554.0,557.0,557.0,466.0,463.0,453.0,438.0,426.0,428.0,434.0,449.0,471.0,470.0,462.0,444.0,443.0,446.0,479.0,499.0,495.0,485.0,470.0,464.0,468.0,469.0,490.0,502.0,509.0,502.0,491.0,478.0,477.0,480.0,492.0,500.0,506.0,504.0,495.0,491.0,483.0,489.0,498.0,509.0,505.0,496.0,503.0,491.0,483.0,479.0,488.0,500.0,510.0,509.0,511.0,501.0,493.0,483.0,486.0,492.0,513.0,527.0,536.0,541.0,529.0,515.0,507.0,468.0,483.0,494.0,499.0,489.0,482.0,474.0,609.0,700.0,705.0,686.0,578.0,533.0,491.0,509.0,515.0,523.0,534.0,549.0,542.0,536.0,549.0,540.0,533.0,534.0,540.0,551.0,564.0,585.0,584.0,578.0,563.0,566.0,571.0,589.0,665.0,671.0,673.0,665.0,656.0,656.0,662.0,665.0,671.0,672.0,656.0,637.0,617.0,583.0,426.0,433.0,436.0,425.0,416.0,402.0,396.0,398.0,408.0,420.0,431.0,431.0,421.0,404.0,419.0,420.0,432.0,447.0,454.0,452.0,439.0,452.0,440.0,433.0,442.0,449.0,459.0,460.0,458.0,446.0,441.0,436.0,441.0,453.0,465.0,471.0,477.0,476.0,461.0,449.0,446.0,459.0,476.0,476.0,472.0,460.0,453.0,451.0,468.0,465.0,473.0,484.0,492.0,495.0,488.0,470.0,472.0,471.0,476.0,489.0,501.0,502.0,495.0,493.0,488.0,488.0,498.0,509.0,515.0,515.0,525.0,520.0,518.0,520.0,529.0,540.0,547.0,512.0,506.0,498.0,485.0,483.0,485.0,511.0,527.0,537.0,551.0,573.0,590.0,615.0,670.0,460.0,504.0,531.0,548.0,551.0,552.0,558.0,580.0,591.0,596.0,590.0,584.0,576.0,580.0,597.0,607.0,618.0,635.0,636.0,633.0,619.0,682.0,676.0,688.0,703.0,716.0,729.0,726.0,740.0,719.0,724.0,727.0,723.0,711.0,694.0,490.0,457.0,451.0,452.0,462.0,463.0,459.0,447.0,425.0,420.0,419.0,432.0,442.0,449.0,460.0,466.0,464.0,459.0,442.0,442.0,448.0,457.0,476.0,477.0,474.0,459.0,448.0,448.0,451.0,454.0,463.0,471.0,480.0,478.0,471.0,464.0,471.0,481.0,490.0,492.0,487.0,478.0,470.0,464.0,461.0,467.0,483.0,494.0,496.0,504.0,485.0,480.0,478.0,501.0,510.0,512.0,516.0,515.0,508.0,497.0,485.0,487.0,492.0,509.0,527.0,526.0,519.0,502.0,497.0,500.0,502.0,522.0,529.0,533.0,527.0,520.0,512.0,510.0,511.0,517.0,527.0,539.0,533.0,525.0,529.0,519.0,527.0,534.0,545.0,549.0,544.0,552.0,524.0,516.0,516.0,525.0,532.0,533.0,537.0,517.0,509.0,504.0,511.0,523.0,532.0,403.0,301.0,249.0,222.0,251.0,306.0,369.0,576.0,585.0,590.0,586.0,574.0,566.0,562.0,580.0,601.0,613.0,615.0,613.0,602.0,594.0,630.0,632.0,640.0,666.0,676.0,683.0,662.0,727.0,723.0,727.0,741.0,753.0,761.0,758.0,631.0,616.0,596.0,543.0,536.0,534.0,536.0,449.0,442.0,431.0,415.0,415.0,420.0,442.0,467.0,468.0,463.0,439.0,439.0,443.0,466.0,465.0,476.0,487.0,485.0,476.0,463.0,451.0,455.0,461.0,471.0,489.0,490.0,483.0,463.0,460.0,454.0,458.0,473.0,484.0,491.0,485.0,473.0,466.0,459.0,487.0,497.0,500.0,493.0,478.0,475.0,477.0,492.0,506.0,513.0,506.0,513.0,506.0,493.0,476.0,477.0,485.0,498.0,508.0,514.0,516.0,500.0,491.0,483.0,486.0,499.0,510.0,518.0,514.0,506.0,495.0,484.0,512.0,515.0,526.0,547.0,547.0,538.0,513.0,481.0,479.0,484.0,506.0,511.0,508.0,498.0,530.0,540.0,551.0,586.0,625.0,664.0,696.0,502.0,512.0,517.0,525.0,533.0,546.0,561.0,561.0,571.0,577.0,576.0,571.0,562.0,551.0,572.0,580.0,591.0,603.0,607.0,604.0,595.0,642.0,645.0,654.0,677.0,691.0,693.0,684.0,706.0,695.0,689.0,689.0,694.0,696.0,683.0,477.0,462.0,445.0,435.0,433.0,437.0,448.0,433.0,428.0,418.0,404.0,405.0,415.0,429.0,437.0,428.0,423.0,426.0,433.0,443.0,459.0,473.0,465.0,453.0,444.0,441.0,446.0,465.0,466.0,475.0,477.0,470.0,458.0,450.0,448.0,467.0,478.0,483.0,484.0,477.0,467.0,456.0,461.0,466.0,473.0,485.0,493.0,493.0,483.0,478.0,471.0,471.0,480.0,491.0,501.0,504.0,496.0,487.0,479.0,477.0,481.0,491.0,505.0,507.0,514.0,512.0,502.0,491.0,487.0,494.0,505.0,513.0,519.0,515.0,508.0,497.0,494.0,496.0,497.0,506.0,521.0,526.0,525.0,510.0,519.0,510.0,499.0,501.0,509.0,519.0,535.0,547.0,537.0,530.0,534.0,543.0,551.0,556.0,525.0,517.0,501.0,493.0,494.0,505.0,516.0,632.0,663.0,684.0,689.0,668.0,635.0,595.0,500.0,568.0,578.0,581.0,569.0,558.0,550.0,564.0,581.0,593.0,598.0,599.0,593.0,584.0,596.0,606.0,619.0,629.0,635.0,627.0,620.0,688.0,686.0,688.0,697.0,721.0,731.0,738.0,725.0,687.0,677.0,675.0,676.0,675.0,666.0,472.0,454.0,440.0,431.0,419.0,423.0,430.0,424.0,429.0,429.0,427.0,409.0,402.0,403.0,421.0,422.0,428.0,446.0,455.0,459.0,446.0,452.0,441.0,438.0,437.0,448.0,459.0,469.0,476.0,476.0,469.0,451.0,449.0,450.0,460.0,453.0,464.0,475.0,483.0,483.0,476.0,456.0,458.0,458.0,464.0,488.0,488.0,485.0,471.0,486.0,477.0,468.0,466.0,474.0,484.0,500.0,506.0,499.0,491.0,479.0,476.0,482.0,500.0,502.0,511.0,513.0,507.0,498.0,489.0,483.0,499.0,507.0,516.0,518.0,516.0,493.0,487.0,491.0,515.0,520.0,513.0,494.0,487.0,486.0,497.0,502.0,511.0,520.0,521.0,518.0,511.0,541.0,522.0,522.0,525.0,542.0,548.0,549.0,521.0,506.0,497.0,492.0,495.0,503.0,515.0,646.0,685.0,714.0,722.0,687.0,649.0,610.0,516.0,545.0,565.0,576.0,574.0,566.0,556.0,566.0,573.0,583.0,591.0,599.0,594.0,586.0,594.0,604.0,615.0,628.0,634.0,630.0,622.0,684.0,686.0,697.0,711.0,727.0,731.0,726.0,736.0,725.0,711.0,693.0,683.0,675.0,676.0,485.0,489.0,489.0,487.0,472.0,460.0,447.0,427.0,414.0,410.0,416.0,427.0,435.0,441.0,439.0,429.0,422.0,421.0,428.0,439.0,456.0,449.0,459.0,463.0,450.0,440.0,433.0,434.0,432.0,437.0,444.0,461.0,464.0,458.0,434.0,452.0,443.0,438.0,443.0,450.0,461.0,479.0,474.0,457.0,442.0,437.0,443.0,464.0,481.0,480.0,486.0,489.0,492.0,487.0,488.0,492.0,473.0,484.0,491.0,500.0,502.0,495.0,486.0,492.0,493.0,495.0,504.0,517.0,515.0,510.0,497.0,489.0,477.0,478.0,487.0,496.0,501.0,487.0,481.0,475.0,489.0,506.0,528.0,544.0,487.0,494.0,493.0,477.0,466.0,456.0,451.0,468.0,496.0,509.0,516.0,501.0,484.0,467.0,369.0,344.0,315.0,290.0,273.0,275.0,290.0,549.0,544.0,533.0,527.0,530.0,546.0,561.0,590.0,576.0,572.0,575.0,585.0,601.0,611.0,662.0,663.0,661.0,650.0,647.0,649.0,677.0,752.0,762.0,767.0,765.0,758.0,746.0,731.0,609.0,595.0,600.0,598.0,580.0,562.0,546.0,455.0,450.0,454.0,461.0,476.0,482.0,480.0,474.0,469.0,471.0,474.0,487.0,496.0,500.0,516.0,516.0,510.0,495.0,481.0,482.0,488.0,488.0,508.0,508.0,500.0,482.0,474.0,471.0,480.0,494.0,505.0,511.0,509.0,500.0,487.0,506.0,496.0,495.0,501.0,516.0,518.0,514.0,509.0,497.0,485.0,481.0,489.0,501.0,518.0,503.0,514.0,517.0,513.0,507.0,502.0,498.0,511.0,516.0,523.0,528.0,530.0,527.0,514.0,514.0,516.0,525.0,538.0,541.0,544.0,533.0,547.0,540.0,511.0,504.0,503.0,524.0,533.0,549.0,560.0,551.0,538.0,532.0,539.0,551.0,507.0,538.0,538.0,529.0,510.0,500.0,498.0,499.0,557.0,586.0,615.0,650.0,665.0,668.0,407.0,519.0,545.0,559.0,567.0,557.0,544.0,550.0,547.0,557.0,572.0,589.0,590.0,583.0,575.0,570.0,579.0,590.0,605.0,605.0,599.0,675.0,666.0,658.0,649.0,657.0,669.0,690.0,715.0,713.0,704.0,666.0,661.0,661.0,665.0,484.0,476.0,466.0,447.0,436.0,430.0,430.0,408.0,415.0,420.0,426.0,424.0,417.0,414.0,410.0,416.0,422.0,439.0,449.0,451.0,429.0,446.0,437.0,437.0,446.0,458.0,469.0,469.0,468.0,460.0,449.0,442.0,451.0,462.0,467.0,454.0,458.0,460.0,450.0,448.0,447.0,458.0,479.0,483.0,479.0,467.0,458.0,450.0,450.0,453.0,457.0,460.0,477.0,485.0,485.0,471.0,474.0,470.0,471.0,491.0,494.0,492.0,481.0,505.0,493.0,484.0,475.0,478.0,488.0,504.0,508.0,515.0,514.0,502.0,496.0,493.0,501.0,520.0,533.0,537.0,533.0,525.0,515.0,505.0,517.0,527.0,540.0,551.0,541.0,529.0,521.0,520.0,519.0,523.0,538.0,547.0,550.0,547.0,577.0,564.0,557.0,553.0,558.0,566.0,578.0,535.0,534.0,527.0,522.0,528.0,534.0,552.0,627.0,587.0,546.0,475.0,437.0,406.0,365.0,592.0,589.0,575.0,561.0,554.0,555.0,581.0,585.0,594.0,595.0,572.0,565.0,563.0,577.0,585.0,592.0,602.0,620.0,630.0,635.0,628.0,669.0,668.0,669.0,685.0,704.0,719.0,724.0,672.0,656.0,638.0,616.0,617.0,625.0,627.0,465.0,459.0,451.0,430.0,421.0,421.0,432.0,444.0,452.0,455.0,445.0,432.0,422.0,428.0,436.0,449.0,460.0,461.0,453.0,438.0,425.0,456.0,463.0,473.0,479.0,478.0,468.0,447.0,452.0,452.0,462.0,474.0,479.0,477.0,466.0,458.0,457.0,461.0,487.0,484.0,476.0,466.0,471.0,475.0,479.0,494.0,499.0,500.0,482.0,504.0,491.0,479.0,468.0,471.0,483.0,507.0,510.0,504.0,494.0,493.0,502.0,512.0,529.0,526.0,518.0,508.0,499.0,503.0,511.0,534.0,519.0,515.0,506.0,498.0,500.0,504.0,524.0,530.0,529.0,519.0,505.0,502.0,504.0,519.0,528.0,539.0,540.0,533.0,521.0,511.0,504.0,510.0,519.0,540.0,544.0,538.0,515.0,503.0,489.0,499.0,510.0,520.0,522.0,515.0,507.0,314.0,251.0,236.0,237.0,253.0,282.0,321.0,570.0,562.0,557.0,559.0,567.0,577.0,587.0,592.0,597.0,596.0,564.0,555.0,558.0,572.0,621.0,633.0,647.0,655.0,653.0,644.0,633.0,695.0,697.0,708.0,730.0,738.0,737.0,728.0,634.0,613.0,593.0,576.0,577.0,576.0,560.0,441.0,435.0,427.0,416.0,413.0,417.0,427.0,446.0,450.0,449.0,436.0,428.0,424.0,445.0,447.0,458.0,466.0,478.0,480.0,473.0,454.0,457.0,460.0,467.0,479.0,488.0,489.0,476.0,462.0,461.0,471.0,488.0,497.0,498.0,478.0,476.0,472.0,478.0,490.0,501.0,503.0,487.0,481.0,478.0,486.0,500.0,513.0,521.0,521.0,515.0,511.0,505.0,492.0,492.0,495.0,517.0,519.0,530.0,529.0,527.0,515.0,505.0,494.0,506.0,504.0,513.0,530.0,536.0,542.0,526.0,519.0,510.0,507.0,512.0,522.0,532.0,546.0,536.0,527.0,522.0,521.0,529.0,542.0,555.0,585.0,582.0,573.0,550.0,542.0,536.0,548.0,511.0,516.0,525.0,532.0,531.0,526.0,515.0,678.0,644.0,616.0,568.0,532.0,488.0,354.0,555.0,548.0,549.0,567.0,579.0,589.0,585.0,584.0,572.0,563.0,562.0,567.0,577.0,599.0,621.0,613.0,610.0,614.0,623.0,635.0,650.0,713.0,705.0,700.0,713.0,725.0,738.0,744.0,645.0,620.0,597.0,566.0,565.0,566.0,556.0,412.0,400.0,390.0,389.0,396.0,409.0,415.0,422.0,419.0,402.0,399.0,403.0,423.0,435.0,444.0,432.0,428.0,424.0,432.0,443.0,456.0,464.0,447.0,437.0,429.0,432.0,437.0,447.0,473.0,467.0,458.0,449.0,439.0,445.0,455.0,480.0,463.0,452.0,443.0,445.0,455.0,468.0,492.0,496.0,496.0,482.0,464.0,462.0,463.0,473.0,485.0,494.0,501.0,497.0,492.0,482.0,485.0,496.0,507.0,517.0,518.0,512.0,500.0,505.0,490.0,495.0,503.0,518.0,527.0,527.0,536.0,512.0,512.0,518.0,537.0,538.0,529.0,506.0,495.0,498.0,504.0,524.0,530.0,528.0,576.0,466.0,426.0,396.0,347.0,303.0,266.0,579.0,557.0,545.0,545.0,551.0,563.0,571.0,578.0,584.0,584.0,575.0,560.0,553.0,556.0,581.0,613.0,618.0,619.0,611.0,602.0,600.0,666.0,690.0,705.0,712.0,711.0,704.0,695.0,585.0,575.0,569.0,568.0,562.0,553.0,536.0,428.0,404.0,394.0,393.0,404.0,414.0,423.0,433.0,435.0,427.0,417.0,408.0,410.0,420.0,438.0,450.0,462.0,466.0,458.0,448.0,439.0,450.0,439.0,445.0,452.0,467.0,467.0,462.0,467.0,442.0,438.0,443.0,459.0,469.0,473.0,480.0,471.0,464.0,457.0,457.0,462.0,473.0,480.0,500.0,499.0,491.0,476.0,469.0,470.0,477.0,501.0,506.0,503.0,495.0,487.0,482.0,488.0,501.0,512.0,519.0,518.0,512.0,505.0,509.0,496.0,500.0,508.0,522.0,525.0,529.0,556.0,536.0,532.0,534.0,553.0,560.0,562.0,523.0,497.0,492.0,490.0,495.0,507.0,515.0,666.0,711.0,740.0,741.0,684.0,634.0,590.0,522.0,569.0,577.0,577.0,568.0,558.0,553.0,571.0,583.0,591.0,599.0,600.0,594.0,583.0,609.0,607.0,616.0,628.0,648.0,644.0,632.0,713.0,706.0,705.0,708.0,726.0,739.0,752.0,750.0,720.0,704.0,691.0,678.0,678.0,677.0,491.0,486.0,476.0,464.0,448.0,440.0,439.0,444.0,455.0,464.0,462.0,442.0,433.0,430.0,445.0,449.0,462.0,474.0,482.0,477.0,471.0,459.0,461.0,473.0,482.0,486.0,483.0,475.0,483.0,462.0,454.0,452.0,473.0,484.0,487.0,487.0,492.0,490.0,485.0,471.0,465.0,466.0,465.0,472.0,484.0,496.0,500.0,493.0,482.0,483.0,478.0,483.0,496.0,510.0,506.0
