0,1,2,3,4,5,6,7,8,9,10,11,12,13,14,15,16,17,18,19,20,21,22,23,24,25,26,27,28,29,30,31,32,33,34,35,36,37,38,39,40,41,42,43,44,45,46,47,48,49,50,51,52,53,54,55,56,57,58,59,60,61,62,63,64,65,66,67,68,69,70,71,72,73,74,75,76,77,78,79,80,81,82,83,84,85,86,87,88,89,90,91,92,93,94,95,96,97,98,99,100,101,102,103,104,105,106,107,108,109,110,111,112,113,114,115,116,117,118,119,120,121,122,123,124,125,126,127,128,129,130,131,132,133,134,135,136,137,138,139,140,141,142,143,144,145,146,147,148,149,150,151,152,153,154,155,156,157,158,159,160,161,162,163,164,165,166,167,168,169,170,171,172,173,174,175,176,177,178,179,180,181,182,183,184,185,186,187,188,189,190,191,192,193,194,195,196,197,198,199,200,201,202,203,204,205,206,207,208,209,210,211,212,213,214,215,216,217,218,219,220,221,222,223,224,225,226,227,228,229,230,231,232,233,234,235,236,237,238,239,240,241,242,243,244,245,246,247,248,249,250,251,252,253,254,255,256,257,258,259,260,261,262,263,264,265,266,267,268,269,270,271,272,273,274,275,276,277,278,279,280,281,282,283,284,285,286,287,288,289,290,291,292,293,294,295,296,297,298,299,300,301,302,303,304,305,306,307,308,309,310,311,312,313,314,315,316,317,318,319,320,321,322,323,324,325,326,327,328,329,330,331,332,333,334,335,336,337,338,339,340,341,342,343,344,345,346,347,348,349,350,351,352,353,354,355,356,357,358,359,360,361,362,363,364,365,366,367,368,369,370,371,372,373,374,375,376,377,378,379,380,381,382,383,384,385,386,387,388,389,390,391,392,393,394,395,396,397,398,399,400,401,402,403,404,405,406,407,408,409,410,411,412,413,414,415,416,417,418,419,420,421,422,423,424,425,426,427,428,429,430,431,432,433,434,435,436,437,438,439,440,441,442,443,444,445,446,447,448,449,450,451,452,453,454,455,456,457,458,459,460,461,462,463,464,465,466,467,468,469,470,471,472,473,474,475,476,477,478,479,480,481,482,483,484,485,486,487,488,489,490,491,492,493,494,495,496,497,498,499,500,501,502,503,504,505,506,507,508,509,510,511,512,513,514,515,516,517,518,519,520,521,522,523,524,525,526,527,528,529,530,531,532,533,534,535,536,537,538,539,540,541,542,543,544,545,546,547,548,549,550,551,552,553,554,555,556,557,558,559,560,561,562,563,564,565,566,567,568,569,570,571,572,573,574,575,576,577,578,579,580,581,582,583,584,585,586,587,588,589,590,591,592,593,594,595,596,597,598,599,600,601,602,603,604,605,606,607,608,609,610,611,612,613,614,615,616,617,618,619,620,621,622,623,624,625,626,627,628,629,630,631,632,633,634,635,636,637,638,639,640,641,642,643,644,645,646,647,648,649,650,651,652,653,654,655,656,657,658,659,660,661,662,663,664,665,666,667,668,669,670,671,672,673,674,675,676,677,678,679,680,681,682,683,684,685,686,687,688,689,690,691,692,693,694,695,696,697,698,699,700,701,702,703,704,705,706,707,708,709,710,711,712,713,714,715,716,717,718,719,720,721,722,723,724,725,726,727,728,729,730,731,732,733,734,735,736,737,738,739,740,741,742,743,744,745,746,747,748,749,750,751,752,753,754,755,756,757,758,759,760,761,762,763,764,765,766,767,768,769,770,771,772,773,774,775,776,777,778,779,780,781,782,783,784,785,786,787,788,789,790,791,792,793,794,795,796,797,798,799,800,801,802,803,804,805,806,807,808,809,810,811,812,813,814,815,816,817,818,819,820,821,822,823,824,825,826,827,828,829,830,831,832,833,834,835,836,837,838,839,840,841,842,843,844,845,846,847,848,849,850,851,852,853,854,855,856,857,858,859,860,861,862,863,864,865,866,867,868,869,870,871,872,873,874,875,876,877,878,879,880,881,882,883,884,885,886,887,888,889,890,891,892,893,894,895,896,897,898,899,900,901,902,903,904,905,906,907,908,909,910,911,912,913,914,915,916,917,918,919,920,921,922,923,924,925,926,927,928,929,930,931,932,933,934,935,936,937,938,939,940,941,942,943,944,945,946,947,948,949,950,951,952,953,954,955,956,957,958,959,960,961,962,963,964,965,966,967,968,969,970,971,972,973,974,975,976,977,978,979,980,981,982,983,984,985,986,987,988,989,990,991,992,993,994,995,996,997,998,999,1000,1001,1002,1003,1004,1005,1006,1007,1008,1009,1010,1011,1012,1013,1014,1015,1016,1017,1018,1019,1020,1021,1022,1023,1024,1025,1026,1027,1028,1029,1030,1031,1032,1033,1034,1035,1036,1037,1038,1039,1040,1041,1042,1043,1044,1045,1046,1047,1048,1049,1050,1051,1052,1053,1054,1055,1056,1057,1058,1059,1060,1061,1062,1063,1064,1065,1066,1067,1068,1069,1070,1071,1072,1073,1074,1075,1076,1077,1078,1079,1080,1081,1082,1083,1084,1085,1086,1087,1088,1089,1090,1091,1092,1093,1094,1095,1096,1097,1098,1099,1100,1101,1102,1103,1104,1105,1106,1107,1108,1109,1110,1111,1112,1113,1114,1115,1116,1117,1118,1119,1120,1121,1122,1123,1124,1125,1126,1127,1128,1129,1130,1131,1132,1133,1134,1135,1136,1137,1138,1139,1140,1141,1142,1143,1144,1145,1146,1147,1148,1149,1150,1151,1152,1153,1154,1155,1156,1157,1158,1159,1160,1161,1162,1163,1164,1165,1166,1167,1168,1169,1170,1171,1172,1173,1174,1175,1176,1177,1178,1179,1180,1181,1182,1183,1184,1185,1186,1187,1188,1189,1190,1191,1192,1193,1194,1195,1196,1197,1198,1199,1200,1201,1202,1203,1204,1205,1206,1207,1208,1209,1210,1211,1212,1213,1214,1215,1216,1217,1218,1219,1220,1221,1222,1223,1224,1225,1226,1227,1228,1229,1230,1231,1232,1233,1234,1235,1236,1237,1238,1239,1240,1241,1242,1243,1244,1245,1246,1247,1248,1249,1250,1251,1252,1253,1254,1255,1256,1257,1258,1259,1260,1261,1262,1263,1264,1265,1266,1267,1268,1269,1270,1271,1272,1273,1274,1275,1276,1277,1278,1279,1280,1281,1282,1283,1284,1285,1286,1287,1288,1289,1290,1291,1292,1293,1294,1295,1296,1297,1298,1299,1300,1301,1302,1303,1304,1305,1306,1307,1308,1309,1310,1311,1312,1313,1314,1315,1316,1317,1318,1319,1320,1321,1322,1323,1324,1325,1326,1327,1328,1329,1330,1331,1332,1333,1334,1335,1336,1337,1338,1339,1340,1341,1342,1343,1344,1345,1346,1347,1348,1349,1350,1351,1352,1353,1354,1355,1356,1357,1358,1359,1360,1361,1362,1363,1364,1365,1366,1367,1368,1369,1370,1371,1372,1373,1374,1375,1376,1377,1378,1379,1380,1381,1382,1383,1384,1385,1386,1387,1388,1389,1390,1391,1392,1393,1394,1395,1396,1397,1398,1399,1400,1401,1402,1403,1404,1405,1406,1407,1408,1409,1410,1411,1412,1413,1414,1415,1416,1417,1418,1419,1420,1421,1422,1423,1424,1425,1426,1427,1428,1429,1430,1431,1432,1433,1434,1435,1436,1437,1438,1439,1440,1441,1442,1443,1444,1445,1446,1447,1448,1449,1450,1451,1452,1453,1454,1455,1456,1457,1458,1459,1460,1461,1462,1463,1464,1465,1466,1467,1468,1469,1470,1471,1472,1473,1474,1475,1476,1477,1478,1479,1480,1481,1482,1483,1484,1485,1486,1487,1488,1489,1490,1491,1492,1493,1494,1495,1496,1497,1498,1499,1500,1501,1502,1503,1504,1505,1506,1507,1508,1509,1510,1511,1512,1513,1514,1515,1516,1517,1518,1519,1520,1521,1522,1523,1524,1525,1526,1527,1528,1529,1530,1531,1532,1533,1534,1535,1536,1537,1538,1539,1540,1541,1542,1543,1544,1545,1546,1547,1548,1549,1550,1551,1552,1553,1554,1555,1556,1557,1558,1559,1560,1561,1562,1563,1564,1565,1566,1567,1568,1569,1570,1571,1572,1573,1574,1575,1576,1577,1578,1579,1580,1581,1582,1583,1584,1585,1586,1587,1588,1589,1590,1591,1592,1593,1594,1595,1596,1597,1598,1599,1600,1601,1602,1603,1604,1605,1606,1607,1608,1609,1610,1611,1612,1613,1614,1615,1616,1617,1618,1619,1620,1621,1622,1623,1624,1625,1626,1627,1628,1629,1630,1631,1632,1633,1634,1635,1636,1637,1638,1639,1640,1641,1642,1643,1644,1645,1646,1647,1648,1649,1650,1651,1652,1653,1654,1655,1656,1657,1658,1659,1660,1661,1662,1663,1664,1665,1666,1667,1668,1669,1670,1671,1672,1673,1674,1675,1676,1677,1678,1679,1680,1681,1682,1683,1684,1685,1686,1687,1688,1689,1690,1691,1692,1693,1694,1695,1696,1697,1698,1699,1700,1701,1702,1703,1704,1705,1706,1707,1708,1709,1710,1711,1712,1713,1714,1715,1716,1717,1718,1719,1720,1721,1722,1723,1724,1725,1726,1727,1728,1729,1730,1731,1732,1733,1734,1735,1736,1737,1738,1739,1740,1741,1742,1743,1744,1745,1746,1747,1748,1749,1750,1751,1752,1753,1754,1755,1756,1757,1758,1759,1760,1761,1762,1763,1764,1765,1766,1767,1768,1769,1770,1771,1772,1773,1774,1775,1776,1777,1778,1779,1780,1781,1782,1783,1784,1785,1786,1787,1788,1789,1790,1791,1792,1793,1794,1795,1796,1797,1798,1799,1800,1801,1802,1803,1804,1805,1806,1807,1808,1809,1810,1811,1812,1813,1814,1815,1816,1817,1818,1819,1820,1821,1822,1823,1824,1825,1826,1827,1828,1829,1830,1831,1832,1833,1834,1835,1836,1837,1838,1839,1840,1841,1842,1843,1844,1845,1846,1847,1848,1849,1850,1851,1852,1853,1854,1855,1856,1857,1858,1859,1860,1861,1862,1863,1864,1865,1866,1867,1868,1869,1870,1871,1872,1873,1874,1875,1876,1877,1878,1879,1880,1881,1882,1883,1884,1885,1886,1887,1888,1889,1890,1891,1892,1893,1894,1895,1896,1897,1898,1899,1900,1901,1902,1903,1904,1905,1906,1907,1908,1909,1910,1911,1912,1913,1914,1915,1916,1917,1918,1919,1920,1921,1922,1923,1924,1925,1926,1927,1928,1929,1930,1931,1932,1933,1934,1935,1936,1937,1938,1939,1940,1941,1942,1943,1944,1945,1946,1947,1948,1949,1950,1951,1952,1953,1954,1955,1956,1957,1958,1959,1960,1961,1962,1963,1964,1965,1966,1967,1968,1969,1970,1971,1972,1973,1974,1975,1976,1977,1978,1979,1980,1981,1982,1983,1984,1985,1986,1987,1988,1989,1990,1991,1992,1993,1994,1995,1996,1997,1998,1999,2000,2001,2002,2003,2004,2005,2006,2007,2008,2009,2010,2011,2012,2013,2014,2015,2016,2017,2018,2019,2020,2021,2022,2023,2024,2025,2026,2027,2028,2029,2030,2031,2032,2033,2034,2035,2036,2037,2038,2039,2040,2041,2042,2043,2044,2045,2046,2047,2048,2049,2050,2051,2052,2053,2054,2055,2056,2057,2058,2059,2060,2061,2062,2063,2064,2065,2066,2067,2068,2069,2070,2071,2072,2073,2074,2075,2076,2077,2078,2079,2080,2081,2082,2083,2084,2085,2086,2087,2088,2089,2090,2091,2092,2093,2094,2095,2096,2097,2098,2099,2100,2101,2102,2103,2104,2105,2106,2107,2108,2109,2110,2111,2112,2113,2114,2115,2116,2117,2118,2119,2120,2121,2122,2123,2124,2125,2126,2127,2128,2129,2130,2131,2132,2133,2134,2135,2136,2137,2138,2139,2140,2141,2142,2143,2144,2145,2146,2147,2148,2149,2150,2151,2152,2153,2154,2155,2156,2157,2158,2159,2160,2161,2162,2163,2164,2165,2166,2167,2168,2169,2170,2171,2172,2173,2174,2175,2176,2177,2178,2179,2180,2181,2182,2183,2184,2185,2186,2187,2188,2189,2190,2191,2192,2193,2194,2195,2196,2197,2198,2199,2200,2201,2202,2203,2204,2205,2206,2207,2208,2209,2210,2211,2212,2213,2214,2215,2216,2217,2218,2219,2220,2221,2222,2223,2224,2225,2226,2227,2228,2229,2230,2231,2232,2233,2234,2235,2236,2237,2238,2239,2240,2241,2242,2243,2244,2245,2246,2247,2248,2249,2250,2251,2252,2253,2254,2255,2256,2257,2258,2259,2260,2261,2262,2263,2264,2265,2266,2267,2268,2269,2270,2271,2272,2273,2274,2275,2276,2277,2278,2279,2280,2281,2282,2283,2284,2285,2286,2287,2288,2289,2290,2291,2292,2293,2294,2295,2296,2297,2298,2299,2300,2301,2302,2303,2304,2305,2306,2307,2308,2309,2310,2311,2312,2313,2314,2315,2316,2317,2318,2319,2320,2321,2322,2323,2324,2325,2326,2327,2328,2329,2330,2331,2332,2333,2334,2335,2336,2337,2338,2339,2340,2341,2342,2343,2344,2345,2346,2347,2348,2349,2350,2351,2352,2353,2354,2355,2356,2357,2358,2359,2360,2361,2362,2363,2364,2365,2366,2367,2368,2369,2370,2371,2372,2373,2374,2375,2376,2377,2378,2379,2380,2381,2382,2383,2384,2385,2386,2387,2388,2389,2390,2391,2392,2393,2394,2395,2396,2397,2398,2399,2400,2401,2402,2403,2404,2405,2406,2407,2408,2409,2410,2411,2412,2413,2414,2415,2416,2417,2418,2419,2420,2421,2422,2423,2424,2425,2426,2427,2428,2429,2430,2431,2432,2433,2434,2435,2436,2437,2438,2439,2440,2441,2442,2443,2444,2445,2446,2447,2448,2449,2450,2451,2452,2453,2454,2455,2456,2457,2458,2459,2460,2461,2462,2463,2464,2465,2466,2467,2468,2469,2470,2471,2472,2473,2474,2475,2476,2477,2478,2479,2480,2481,2482,2483,2484,2485,2486,2487,2488,2489,2490,2491,2492,2493,2494,2495,2496,2497,2498,2499,2500,2501,2502,2503,2504,2505,2506,2507,2508,2509,2510,2511,2512,2513,2514,2515,2516,2517,2518,2519,2520,2521,2522,2523,2524,2525,2526,2527,2528,2529,2530,2531,2532,2533,2534,2535,2536,2537,2538,2539,2540,2541,2542,2543,2544,2545,2546,2547,2548,2549,2550,2551,2552,2553,2554,2555,2556,2557,2558,2559,2560,2561,2562,2563,2564,2565,2566,2567,2568,2569,2570,2571,2572,2573,2574,2575,2576,2577,2578,2579,2580,2581,2582,2583,2584,2585,2586,2587,2588,2589,2590,2591,2592,2593,2594,2595,2596,2597,2598,2599,2600,2601,2602,2603,2604,2605,2606,2607,2608,2609,2610,2611,2612,2613,2614,2615,2616,2617,2618,2619,2620,2621,2622,2623,2624,2625,2626,2627,2628,2629,2630,2631,2632,2633,2634,2635,2636,2637,2638,2639,2640,2641,2642,2643,2644,2645,2646,2647,2648,2649,2650,2651,2652,2653,2654,2655,2656,2657,2658,2659,2660,2661,2662,2663,2664,2665,2666,2667,2668,2669,2670,2671,2672,2673,2674,2675,2676,2677,2678,2679,2680,2681,2682,2683,2684,2685,2686,2687,2688,2689,2690,2691,2692,2693,2694,2695,2696,2697,2698,2699,2700,2701,2702,2703,2704,2705,2706,2707,2708,2709,2710,2711,2712,2713,2714,2715,2716,2717,2718,2719,2720,2721,2722,2723,2724,2725,2726,2727,2728,2729,2730,2731,2732,2733,2734,2735,2736,2737,2738,2739,2740,2741,2742,2743,2744,2745,2746,2747,2748,2749,2750,2751,2752,2753,2754,2755,2756,2757,2758,2759,2760,2761,2762,2763,2764,2765,2766,2767,2768,2769,2770,2771,2772,2773,2774,2775,2776,2777,2778,2779,2780,2781,2782,2783,2784,2785,2786,2787,2788,2789,2790,2791,2792,2793,2794,2795,2796,2797,2798,2799,2800,2801,2802,2803,2804,2805,2806,2807,2808,2809,2810,2811,2812,2813,2814,2815,2816,2817,2818,2819,2820,2821,2822,2823,2824,2825,2826,2827,2828,2829,2830,2831,2832,2833,2834,2835,2836,2837,2838,2839,2840,2841,2842,2843,2844,2845,2846,2847,2848,2849,2850,2851,2852,2853,2854,2855,2856,2857,2858,2859,2860,2861,2862,2863,2864,2865,2866,2867,2868,2869,2870,2871,2872,2873,2874,2875,2876,2877,2878,2879,2880,2881,2882,2883,2884,2885,2886,2887,2888,2889,2890,2891,2892,2893,2894,2895,2896,2897,2898,2899,2900,2901,2902,2903,2904,2905,2906,2907,2908,2909,2910,2911,2912,2913,2914,2915,2916,2917,2918,2919,2920,2921,2922,2923,2924,2925,2926,2927,2928,2929,2930,2931,2932,2933,2934,2935,2936,2937,2938,2939,2940,2941,2942,2943,2944,2945,2946,2947,2948,2949,2950,2951,2952,2953,2954,2955,2956,2957,2958,2959,2960,2961,2962,2963,2964,2965,2966,2967,2968,2969,2970,2971,2972,2973,2974,2975,2976,2977,2978,2979,2980,2981,2982,2983,2984,2985,2986,2987,2988,2989,2990,2991,2992,2993,2994,2995,2996,2997,2998,2999,3000,3001,3002,3003,3004,3005,3006,3007,3008,3009,3010,3011,3012,3013,3014,3015,3016,3017,3018,3019,3020,3021,3022,3023,3024,3025,3026,3027,3028,3029,3030,3031,3032,3033,3034,3035,3036,3037,3038,3039,3040,3041,3042,3043,3044,3045,3046,3047,3048,3049,3050,3051,3052,3053,3054,3055,3056,3057,3058,3059,3060,3061,3062,3063,3064,3065,3066,3067,3068,3069,3070,3071,3072,3073,3074,3075,3076,3077,3078,3079,3080,3081,3082,3083,3084,3085,3086,3087,3088,3089,3090,3091,3092,3093,3094,3095,3096,3097,3098,3099,3100,3101,3102,3103,3104,3105,3106,3107,3108,3109,3110,3111,3112,3113,3114,3115,3116,3117,3118,3119,3120,3121,3122,3123,3124,3125,3126,3127,3128,3129,3130,3131,3132,3133,3134,3135,3136,3137,3138,3139,3140,3141,3142,3143,3144,3145,3146,3147,3148,3149,3150,3151,3152,3153,3154,3155,3156,3157,3158,3159,3160,3161,3162,3163,3164,3165,3166,3167,3168,3169,3170,3171,3172,3173,3174,3175,3176,3177,3178,3179,3180,3181,3182,3183,3184,3185,3186,3187,3188,3189,3190,3191,3192,3193,3194,3195,3196,3197,3198,3199,3200,3201,3202,3203,3204,3205,3206,3207,3208,3209,3210,3211,3212,3213,3214,3215,3216,3217,3218,3219,3220,3221,3222,3223,3224,3225,3226,3227,3228,3229,3230,3231,3232,3233,3234,3235,3236,3237,3238,3239,3240,3241,3242,3243,3244,3245,3246,3247,3248,3249,3250,3251,3252,3253,3254,3255,3256,3257,3258,3259,3260,3261,3262,3263,3264,3265,3266,3267,3268,3269,3270,3271,3272,3273,3274,3275,3276,3277,3278,3279,3280,3281,3282,3283,3284,3285,3286,3287,3288,3289,3290,3291,3292,3293,3294,3295,3296,3297,3298,3299,3300,3301,3302,3303,3304,3305,3306,3307,3308,3309,3310,3311,3312,3313,3314,3315,3316,3317,3318,3319,3320,3321,3322,3323,3324,3325,3326,3327,3328,3329,3330,3331,3332,3333,3334,3335,3336,3337,3338,3339,3340,3341,3342,3343,3344,3345,3346,3347,3348,3349,3350,3351,3352,3353,3354,3355,3356,3357,3358,3359,3360,3361,3362,3363,3364,3365,3366,3367,3368,3369,3370,3371,3372,3373,3374,3375,3376,3377,3378,3379,3380,3381,3382,3383,3384,3385,3386,3387,3388,3389,3390,3391,3392,3393,3394,3395,3396,3397,3398,3399,3400,3401,3402,3403,3404,3405,3406,3407,3408,3409,3410,3411,3412,3413,3414,3415,3416,3417,3418,3419,3420,3421,3422,3423,3424,3425,3426,3427,3428,3429,3430,3431,3432,3433,3434,3435,3436,3437,3438,3439,3440,3441,3442,3443,3444,3445,3446,3447,3448,3449,3450,3451,3452,3453,3454,3455,3456,3457,3458,3459,3460,3461,3462,3463,3464,3465,3466,3467,3468,3469,3470,3471,3472,3473,3474,3475,3476,3477,3478,3479,3480,3481,3482,3483,3484,3485,3486,3487,3488,3489,3490,3491,3492,3493,3494,3495,3496,3497,3498,3499,3500,3501,3502,3503,3504,3505,3506,3507,3508,3509,3510,3511,3512,3513,3514,3515,3516,3517,3518,3519,3520,3521,3522,3523,3524,3525,3526,3527,3528,3529,3530,3531,3532,3533,3534,3535,3536,3537,3538,3539,3540,3541,3542,3543,3544,3545,3546,3547,3548,3549,3550,3551,3552,3553,3554,3555,3556,3557,3558,3559,3560,3561,3562,3563,3564,3565,3566,3567,3568,3569,3570,3571,3572,3573,3574,3575,3576,3577,3578,3579,3580,3581,3582,3583,3584,3585,3586,3587,3588,3589,3590,3591,3592,3593,3594,3595,3596,3597,3598,3599,3600,3601,3602,3603,3604,3605,3606,3607,3608,3609,3610,3611,3612,3613,3614,3615,3616,3617,3618,3619,3620,3621,3622,3623,3624,3625,3626,3627,3628,3629,3630,3631,3632,3633,3634,3635,3636,3637,3638,3639,3640,3641,3642,3643,3644,3645,3646,3647,3648,3649,3650,3651,3652,3653,3654,3655,3656,3657,3658,3659,3660,3661,3662,3663,3664,3665,3666,3667,3668,3669,3670,3671,3672,3673,3674,3675,3676,3677,3678,3679,3680,3681,3682,3683,3684,3685,3686,3687,3688,3689,3690,3691,3692,3693,3694,3695,3696,3697,3698,3699,3700,3701,3702,3703,3704,3705,3706,3707,3708,3709,3710,3711,3712,3713,3714,3715,3716,3717,3718,3719,3720,3721,3722,3723,3724,3725,3726,3727,3728,3729,3730,3731,3732,3733,3734,3735,3736,3737,3738,3739,3740,3741,3742,3743,3744,3745,3746,3747,3748,3749,3750,3751,3752,3753,3754,3755,3756,3757,3758,3759,3760,3761,3762,3763,3764,3765,3766,3767,3768,3769,3770,3771,3772,3773,3774,3775,3776,3777,3778,3779,3780,3781,3782,3783,3784,3785,3786,3787,3788,3789,3790,3791,3792,3793,3794,3795,3796,3797,3798,3799,3800,3801,3802,3803,3804,3805,3806,3807,3808,3809,3810,3811,3812,3813,3814,3815,3816,3817,3818,3819,3820,3821,3822,3823,3824,3825,3826,3827,3828,3829,3830,3831,3832,3833,3834,3835,3836,3837,3838,3839,3840,3841,3842,3843,3844,3845,3846,3847,3848,3849,3850,3851,3852,3853,3854,3855,3856,3857,3858,3859,3860,3861,3862,3863,3864,3865,3866,3867,3868,3869,3870,3871,3872,3873,3874,3875,3876,3877,3878,3879,3880,3881,3882,3883,3884,3885,3886,3887,3888,3889,3890,3891,3892,3893,3894,3895,3896,3897,3898,3899,3900,3901,3902,3903,3904,3905,3906,3907,3908,3909,3910,3911,3912,3913,3914,3915,3916,3917,3918,3919,3920,3921,3922,3923,3924,3925,3926,3927,3928,3929,3930,3931,3932,3933,3934,3935,3936,3937,3938,3939,3940,3941,3942,3943,3944,3945,3946,3947,3948,3949,3950,3951,3952,3953,3954,3955,3956,3957,3958,3959,3960,3961,3962,3963,3964,3965,3966,3967,3968,3969,3970,3971,3972,3973,3974,3975,3976,3977,3978,3979,3980,3981,3982,3983,3984,3985,3986,3987,3988,3989,3990,3991,3992,3993,3994,3995,3996,3997,3998,3999,4000,4001,4002,4003,4004,4005,4006,4007,4008,4009,4010,4011,4012,4013,4014,4015,4016,4017,4018,4019,4020,4021,4022,4023,4024,4025,4026,4027,4028,4029,4030,4031,4032,4033,4034,4035,4036,4037,4038,4039,4040,4041,4042,4043,4044,4045,4046,4047,4048,4049,4050,4051,4052,4053,4054,4055,4056,4057,4058,4059,4060,4061,4062,4063,4064,4065,4066,4067,4068,4069,4070,4071,4072,4073,4074,4075,4076,4077,4078,4079,4080,4081,4082,4083,4084,4085,4086,4087,4088,4089,4090,4091,4092,4093,4094,4095,4096,4097,4098,4099,4100,4101,4102,4103,4104,4105,4106,4107,4108,4109,4110,4111,4112,4113,4114,4115,4116,4117,4118,4119,4120,4121,4122,4123,4124,4125,4126,4127,4128,4129,4130,4131,4132,4133,4134,4135,4136,4137,4138,4139,4140,4141,4142,4143,4144,4145,4146,4147,4148,4149,4150,4151,4152,4153,4154,4155,4156,4157,4158,4159,4160,4161,4162,4163,4164,4165,4166,4167,4168,4169,4170,4171,4172,4173,4174,4175,4176,4177,4178,4179,4180,4181,4182,4183,4184,4185,4186,4187,4188,4189,4190,4191,4192,4193,4194,4195,4196,4197,4198,4199,4200,4201,4202,4203,4204,4205,4206,4207,4208,4209,4210,4211,4212,4213,4214,4215,4216,4217,4218,4219,4220,4221,4222,4223,4224,4225,4226,4227,4228,4229,4230,4231,4232,4233,4234,4235,4236,4237,4238,4239,4240,4241,4242,4243,4244,4245,4246,4247,4248,4249,4250,4251,4252,4253,4254,4255,4256,4257,4258,4259,4260,4261,4262,4263,4264,4265,4266,4267,4268,4269,4270,4271,4272,4273,4274,4275,4276,4277,4278,4279,4280,4281,4282,4283,4284,4285,4286,4287,4288,4289,4290,4291,4292,4293,4294,4295,4296,4297,4298,4299,4300,4301,4302,4303,4304,4305,4306,4307,4308,4309,4310,4311,4312,4313,4314,4315,4316,4317,4318,4319,4320,4321,4322,4323,4324,4325,4326,4327,4328,4329,4330,4331,4332,4333,4334,4335,4336,4337,4338,4339,4340,4341,4342,4343,4344,4345,4346,4347,4348,4349,4350,4351,4352,4353,4354,4355,4356,4357,4358,4359,4360,4361,4362,4363,4364,4365,4366,4367,4368,4369,4370,4371,4372,4373,4374,4375,4376,4377,4378,4379,4380,4381,4382,4383,4384,4385,4386,4387,4388,4389,4390,4391,4392,4393,4394,4395,4396,4397,4398,4399,4400,4401,4402,4403,4404,4405,4406,4407,4408,4409,4410,4411,4412,4413,4414,4415,4416,4417,4418,4419,4420,4421,4422,4423,4424,4425,4426,4427,4428,4429,4430,4431,4432,4433,4434,4435,4436,4437,4438,4439,4440,4441,4442,4443,4444,4445,4446,4447,4448,4449,4450,4451,4452,4453,4454,4455,4456,4457,4458,4459,4460,4461,4462,4463,4464,4465,4466,4467,4468,4469,4470,4471,4472,4473,4474,4475,4476,4477,4478,4479,4480,4481,4482,4483,4484,4485,4486,4487,4488,4489,4490,4491,4492,4493,4494,4495,4496,4497,4498,4499,4500,4501,4502,4503,4504,4505,4506,4507,4508,4509,4510,4511,4512,4513,4514,4515,4516,4517,4518,4519,4520,4521,4522,4523,4524,4525,4526,4527,4528,4529,4530,4531,4532,4533,4534,4535,4536,4537,4538,4539,4540,4541,4542,4543,4544,4545,4546,4547,4548,4549,4550,4551,4552,4553,4554,4555,4556,4557,4558,4559,4560,4561,4562,4563,4564,4565,4566,4567,4568,4569,4570,4571,4572,4573,4574,4575,4576,4577,4578,4579,4580,4581,4582,4583,4584,4585,4586,4587,4588,4589,4590,4591,4592,4593,4594,4595,4596,4597,4598,4599,4600,4601,4602,4603,4604,4605,4606,4607,4608,4609,4610,4611,4612,4613,4614,4615,4616,4617,4618,4619,4620,4621,4622,4623,4624,4625,4626,4627,4628,4629,4630,4631,4632,4633,4634,4635,4636,4637,4638,4639,4640,4641,4642,4643,4644,4645,4646,4647,4648,4649,4650,4651,4652,4653,4654,4655,4656,4657,4658,4659,4660,4661,4662,4663,4664,4665,4666,4667,4668,4669,4670,4671,4672,4673,4674,4675,4676,4677,4678,4679,4680,4681,4682,4683,4684,4685,4686,4687,4688,4689,4690,4691,4692,4693,4694,4695,4696,4697,4698,4699,4700,4701,4702,4703,4704,4705,4706,4707,4708,4709,4710,4711,4712,4713,4714,4715,4716,4717,4718,4719,4720,4721,4722,4723,4724,4725,4726,4727,4728,4729,4730,4731,4732,4733,4734,4735,4736,4737,4738,4739,4740,4741,4742,4743,4744,4745,4746,4747,4748,4749,4750,4751,4752,4753,4754,4755,4756,4757,4758,4759,4760,4761,4762,4763,4764,4765,4766,4767,4768,4769,4770,4771,4772,4773,4774,4775,4776,4777,4778,4779,4780,4781,4782,4783,4784,4785,4786,4787,4788,4789,4790,4791,4792,4793,4794,4795,4796,4797,4798,4799,4800,4801,4802,4803,4804,4805,4806,4807,4808,4809,4810,4811,4812,4813,4814,4815,4816,4817,4818,4819,4820,4821,4822,4823,4824,4825,4826,4827,4828,4829,4830,4831,4832,4833,4834,4835,4836,4837,4838,4839,4840,4841,4842,4843,4844,4845,4846,4847,4848,4849,4850,4851,4852,4853,4854,4855,4856,4857,4858,4859,4860,4861,4862,4863,4864,4865,4866,4867,4868,4869,4870,4871,4872,4873,4874,4875,4876,4877,4878,4879,4880,4881,4882,4883,4884,4885,4886,4887,4888,4889,4890,4891,4892,4893,4894,4895,4896,4897,4898,4899,4900,4901,4902,4903,4904,4905,4906,4907,4908,4909,4910,4911,4912,4913,4914,4915,4916,4917,4918,4919,4920,4921,4922,4923,4924,4925,4926,4927,4928,4929,4930,4931,4932,4933,4934,4935,4936,4937,4938,4939,4940,4941,4942,4943,4944,4945,4946,4947,4948,4949,4950,4951,4952,4953,4954,4955,4956,4957,4958,4959,4960,4961,4962,4963,4964,4965,4966,4967,4968,4969,4970,4971,4972,4973,4974,4975,4976,4977,4978,4979,4980,4981,4982,4983,4984,4985,4986,4987,4988,4989,4990,4991,4992,4993,4994,4995,4996,4997,4998,4999
0.0,0.00808661732346473,0.01617323464692946,0.024259851970394188,0.03234646929385892,0.04043308661732365,0.048519703940788375,0.05660632126425311,0.06469293858771784,0.07277955591118257,0.0808661732346473,0.08895279055811203,0.09703940788157675,0.10512602520504148,0.11321264252850621,0.12129925985197094,0.12938587717543568,0.1374724944989004,0.14555911182236514,0.15364572914582986,0.1617323464692946,0.16981896379275932,0.17790558111622407,0.18599219843968878,0.1940788157631535,0.20216543308661825,0.21025205041008296,0.2183386677335477,0.22642528505701243,0.23451190238047717,0.2425985197039419,0.25068513702740663,0.25877175435087135,0.26685837167433607,0.2749449889978008,0.28303160632126556,0.2911182236447303,0.299204840968195,0.3072914582916597,0.3153780756151245,0.3234646929385892,0.3315513102620539,0.33963792758551864,0.34772454490898336,0.35581116223244813,0.36389777955591285,0.37198439687937757,0.3800710142028423,0.388157631526307,0.3962442488497718,0.4043308661732365,0.4124174834967012,0.4205041008201659,0.4285907181436307,0.4366773354670954,0.44476395279056014,0.45285057011402485,0.46093718743748957,0.46902380476095434,0.47711042208441906,0.4851970394078838,0.4932836567313485,0.5013702740548133,0.509456891378278,0.5175435087017427,0.5256301260252074,0.5337167433486721,0.5418033606721369,0.5498899779956016,0.5579765953190664,0.5660632126425311,0.5741498299659958,0.5822364472894606,0.5903230646129253,0.59840968193639,0.6064962992598547,0.6145829165833194,0.6226695339067841,0.630756151230249,0.6388427685537137,0.6469293858771784,0.6550160032006431,0.6631026205241078,0.6711892378475726,0.6792758551710373,0.687362472494502,0.6954490898179667,0.7035357071414315,0.7116223244648963,0.719708941788361,0.7277955591118257,0.7358821764352904,0.7439687937587551,0.7520554110822198,0.7601420284056846,0.7682286457291493,0.776315263052614,0.7844018803760788,0.7924884976995435,0.8005751150230083,0.808661732346473,0.8167483496699377,0.8248349669934024,0.8329215843168671,0.8410082016403319,0.8490948189637966,0.8571814362872614,0.8652680536107261,0.8733546709341908,0.8814412882576556,0.8895279055811203,0.897614522904585,0.9057011402280497,0.9137877575515144,0.9218743748749791,0.929960992198444,0.9380476095219087,0.9461342268453734,0.9542208441688381,0.9623074614923028,0.9703940788157676,0.9784806961392323,0.986567313462697,0.9946539307861617,1.0027405481096265,1.0108271654330911,1.018913782756556,1.0270004000800206,1.0350870174034854,1.0431736347269502,1.0512602520504148,1.0593468693738797,1.0674334866973443,1.075520104020809,1.0836067213442737,1.0916933386677385,1.0997799559912032,1.107866573314668,1.1159531906381328,1.1240398079615974,1.1321264252850622,1.1402130426085268,1.1482996599319917,1.1563862772554563,1.1644728945789211,1.1725595119023857,1.1806461292258505,1.1887327465493154,1.19681936387278,1.2049059811962448,1.2129925985197094,1.2210792158431742,1.2291658331666389,1.2372524504901037,1.2453390678135683,1.2534256851370331,1.261512302460498,1.2695989197839626,1.2776855371074274,1.285772154430892,1.2938587717543568,1.3019453890778214,1.3100320064012863,1.3181186237247509,1.3262052410482157,1.3342918583716805,1.3423784756951451,1.35046509301861,1.3585517103420746,1.3666383276655394,1.374724944989004,1.3828115623124688,1.3908981796359334,1.3989847969593983,1.407071414282863,1.4151580316063277,1.4232446489297925,1.4313312662532571,1.439417883576722,1.4475045009001866,1.4555911182236514,1.463677735547116,1.4717643528705808,1.4798509701940457,1.4879375875175103,1.496024204840975,1.5041108221644397,1.5121974394879045,1.5202840568113691,1.528370674134834,1.5364572914582986,1.5445439087817634,1.552630526105228,1.5607171434286928,1.5688037607521577,1.5768903780756223,1.584976995399087,1.5930636127225517,1.6011502300460165,1.6092368473694811,1.617323464692946,1.6254100820164106,1.6334966993398754,1.6415833166633402,1.6496699339868048,1.6577565513102697,1.6658431686337343,1.673929785957199,1.6820164032806637,1.6901030206041285,1.6981896379275931,1.706276255251058,1.7143628725745228,1.7224494898979874,1.7305361072214522,1.7386227245449168,1.7467093418683817,1.7547959591918463,1.762882576515311,1.7709691938387757,1.7790558111622405,1.7871424284857054,1.79522904580917,1.8033156631326348,1.8114022804560994,1.8194888977795642,1.8275755151030288,1.8356621324264937,1.8437487497499583,1.851835367073423,1.859921984396888,1.8680086017203525,1.8760952190438174,1.884181836367282,1.8922684536907468,1.9003550710142114,1.9084416883376762,1.9165283056611409,1.9246149229846057,1.9327015403080705,1.9407881576315351,1.948874774955,1.9569613922784646,1.9650480096019294,1.973134626925394,1.9812212442488588,1.9893078615723234,1.9973944788957883,2.005481096219253,2.013567713542718,2.0216543308661823,2.029740948189647,2.037827565513112,2.0459141828365768,2.054000800160041,2.062087417483506,2.070174034806971,2.0782606521304356,2.0863472694539005,2.094433886777365,2.1025205041008297,2.1106071214242945,2.1186937387477593,2.1267803560712237,2.1348669733946886,2.1429535907181534,2.151040208041618,2.159126825365083,2.1672134426885474,2.1753000600120123,2.183386677335477,2.191473294658942,2.1995599119824063,2.207646529305871,2.215733146629336,2.223819763952801,2.2319063812762656,2.23999299859973,2.248079615923195,2.2561662332466597,2.2642528505701245,2.272339467893589,2.2804260852170537,2.2885127025405185,2.2965993198639834,2.304685937187448,2.3127725545109126,2.3208591718343774,2.3289457891578422,2.337032406481307,2.3451190238047714,2.3532056411282363,2.361292258451701,2.369378875775166,2.3774654930986308,2.385552110422095,2.39363872774556,2.401725345069025,2.4098119623924896,2.417898579715954,2.425985197039419,2.4340718143628837,2.4421584316863485,2.4502450490098133,2.4583316663332777,2.4664182836567425,2.4745049009802074,2.482591518303672,2.4906781356271366,2.4987647529506014,2.5068513702740662,2.514937987597531,2.523024604920996,2.5311112222444603,2.539197839567925,2.54728445689139,2.5553710742148548,2.563457691538319,2.571544308861784,2.579630926185249,2.5877175435087136,2.5958041608321785,2.603890778155643,2.6119773954791077,2.6200640128025725,2.6281506301260373,2.6362372474495017,2.6443238647729665,2.6524104820964314,2.660497099419896,2.668583716743361,2.6766703340668254,2.6847569513902902,2.692843568713755,2.70093018603722,2.7090168033606843,2.717103420684149,2.725190038007614,2.7332766553310788,2.7413632726545436,2.749449889978008,2.757536507301473,2.7656231246249376,2.7737097419484025,2.781796359271867,2.7898829765953317,2.7979695939187965,2.8060562112422613,2.814142828565726,2.8222294458891906,2.8303160632126554,2.83840268053612,2.846489297859585,2.8545759151830494,2.8626625325065143,2.870749149829979,2.878835767153444,2.8869223844769087,2.895009001800373,2.903095619123838,2.911182236447303,2.9192688537707676,2.927355471094232,2.935442088417697,2.9435287057411617,2.9516153230646265,2.9597019403880913,2.9677885577115557,2.9758751750350205,2.9839617923584854,2.99204840968195,3.0001350270054146,3.0082216443288794,3.0163082616523442,3.024394878975809,3.032481496299274,3.0405681136227383,3.048654730946203,3.056741348269668,3.0648279655931328,3.072914582916597,3.081001200240062,3.089087817563527,3.0971744348869916,3.105261052210456,3.113347669533921,3.1214342868573857,3.1295209041808505,3.1376075215043153,3.1456941388277797,3.1537807561512445,3.1618673734747094,3.169953990798174,3.1780406081216386,3.1861272254451034,3.1942138427685682,3.202300460092033,3.210387077415498,3.2184736947389623,3.226560312062427,3.234646929385892,3.2427335467093568,3.250820164032821,3.258906781356286,3.266993398679751,3.2750800160032156,3.2831666333266805,3.291253250650145,3.2993398679736097,3.3074264852970745,3.3155131026205393,3.3235997199440037,3.3316863372674685,3.3397729545909334,3.347859571914398,3.355946189237863,3.3640328065613274,3.3721194238847922,3.380206041208257,3.388292658531722,3.3963792758551863,3.404465893178651,3.412552510502116,3.4206391278255808,3.4287257451490456,3.43681236247251,3.444898979795975,3.4529855971194396,3.4610722144429045,3.469158831766369,3.4772454490898337,3.4853320664132985,3.4934186837367633,3.501505301060228,3.5095919183836926,3.5176785357071574,3.525765153030622,3.533851770354087,3.5419383876775514,3.5500250050010163,3.558111622324481,3.566198239647946,3.5742848569714107,3.582371474294875,3.59045809161834,3.598544708941805,3.6066313262652696,3.614717943588734,3.622804560912199,3.6308911782356637,3.6389777955591285,3.6470644128825933,3.6551510302060577,3.6632376475295225,3.6713242648529874,3.679410882176452,3.6874974994999166,3.6955841168233814,3.703670734146846,3.711757351470311,3.719843968793776,3.7279305861172403,3.736017203440705,3.74410382076417,3.7521904380876347,3.760277055411099,3.768363672734564,3.776450290058029,3.7845369073814936,3.7926235247049584,3.800710142028423,3.8087967593518877,3.8168833766753525,3.8249699939988173,3.8330566113222817,3.8411432286457465,3.8492298459692114,3.857316463292676,3.865403080616141,3.8734896979396054,3.8815763152630702,3.889662932586535,3.89774954991,3.9058361672334643,3.913922784556929,3.922009401880394,3.9300960192038588,3.9381826365273236,3.946269253850788,3.954355871174253,3.9624424884977176,3.9705291058211825,3.978615723144647,3.9867023404681117,3.9947889577915765,4.002875575115041,4.010962192438506,4.019048809761971,4.027135427085436,4.0352220444089,4.043308661732365,4.051395279055829,4.059481896379294,4.067568513702759,4.075655131026224,4.083741748349689,4.0918283656731536,4.099914982996618,4.108001600320082,4.116088217643547,4.124174834967012,4.132261452290477,4.140348069613942,4.1484346869374065,4.156521304260871,4.164607921584336,4.172694538907801,4.180781156231265,4.18886777355473,4.1969543908781946,4.205041008201659,4.213127625525124,4.221214242848589,4.229300860172054,4.237387477495519,4.2454740948189835,4.2535607121424475,4.261647329465912,4.269733946789377,4.277820564112842,4.285907181436307,4.293993798759772,4.302080416083236,4.310167033406701,4.318253650730166,4.32634026805363,4.334426885377095,4.34251350270056,4.3506001200240245,4.358686737347489,4.366773354670954,4.374859971994419,4.382946589317884,4.391033206641349,4.399119823964813,4.407206441288277,4.415293058611742,4.423379675935207,4.431466293258672,4.439552910582137,4.447639527905602,4.455726145229066,4.463812762552531,4.471899379875995,4.47998599719946,4.488072614522925,4.49615923184639,4.5042458491698545,4.512332466493319,4.520419083816784,4.528505701140249,4.536592318463714,4.544678935787178,4.552765553110643,4.560852170434107,4.568938787757572,4.577025405081037,4.585112022404502,4.593198639727967,4.6012852570514315,4.609371874374896,4.61745849169836,4.625545109021825,4.63363172634529,4.641718343668755,4.64980496099222,4.6578915783156845,4.665978195639149,4.674064812962614,4.682151430286079,4.690238047609543,4.698324664933008,4.7064112822564725,4.714497899579937,4.722584516903402,4.730671134226867,4.738757751550332,4.746844368873797,4.7549309861972615,4.7630176035207255,4.77110422084419,4.779190838167655,4.78727745549112,4.795364072814585,4.80345069013805,4.811537307461514,4.819623924784979,4.827710542108444,4.835797159431908,4.843883776755373,4.851970394078838,4.8600570114023025,4.868143628725767,4.876230246049232,4.884316863372697,4.892403480696162,4.900490098019627,4.908576715343091,4.916663332666555,4.92474994999002,4.932836567313485,4.94092318463695,4.949009801960415,4.95709641928388,4.965183036607344,4.973269653930809,4.981356271254273,4.989442888577738,4.997529505901203,5.005616123224668,5.0137027405481325,5.021789357871597,5.029875975195062,5.037962592518527,5.046049209841992,5.054135827165456,5.062222444488921,5.070309061812385,5.07839567913585,5.086482296459315,5.09456891378278,5.102655531106245,5.1107421484297095,5.118828765753174,5.126915383076638,5.135002000400103,5.143088617723568,5.151175235047033,5.159261852370498,5.167348469693962,5.175435087017427,5.183521704340892,5.191608321664357,5.199694938987821,5.207781556311286,5.2158681736347505,5.223954790958215,5.23204140828168,5.240128025605145,5.24821464292861,5.256301260252075,5.2643878775755395,5.272474494899003,5.280561112222468,5.288647729545933,5.296734346869398,5.304820964192863,5.312907581516328,5.320994198839792,5.329080816163257,5.337167433486722,5.345254050810186,5.353340668133651,5.361427285457116,5.3695139027805805,5.377600520104045,5.38568713742751,5.393773754750975,5.40186037207444,5.409946989397905,5.418033606721369,5.426120224044833,5.434206841368298,5.442293458691763,5.450380076015228,5.458466693338693,5.4665533106621575,5.474639927985622,5.482726545309087,5.490813162632551,5.498899779956016,5.506986397279481,5.515073014602946,5.5231596319264105,5.531246249249875,5.53933286657334,5.547419483896805,5.55550610122027,5.563592718543734,5.5716793358671985,5.579765953190663,5.587852570514128,5.595939187837593,5.604025805161058,5.612112422484523,5.6201990398079875,5.628285657131452,5.636372274454916,5.644458891778381,5.652545509101846,5.660632126425311,5.668718743748776,5.67680536107224,5.684891978395705,5.69297859571917,5.701065213042635,5.709151830366099,5.717238447689564,5.7253250650130285,5.733411682336493,5.741498299659958,5.749584916983423,5.757671534306888,5.765758151630353,5.7738447689538175,5.781931386277281,5.790018003600746,5.798104620924211,5.806191238247676,5.814277855571141,5.822364472894606,5.83045109021807,5.838537707541535,5.846624324865,5.854710942188464,5.862797559511929,5.870884176835394,5.8789707941588585,5.887057411482323,5.895144028805788,5.903230646129253,5.911317263452718,5.919403880776183,5.927490498099647,5.935577115423111,5.943663732746576,5.951750350070041,5.959836967393506,5.967923584716971,5.9760102020404355,5.9840968193639,5.992183436687365,6.000270054010829,6.008356671334294,6.016443288657759,6.024529905981224,6.0326165233046884,6.040703140628153,6.048789757951618,6.056876375275083,6.064962992598548,6.073049609922012,6.0811362272454765,6.089222844568941,6.097309461892406,6.105396079215871,6.113482696539336,6.121569313862801,6.1296559311862655,6.13774254850973,6.145829165833194,6.153915783156659,6.162002400480124,6.170089017803589,6.178175635127054,6.186262252450518,6.194348869773983,6.202435487097448,6.210522104420912,6.218608721744377,6.226695339067842,6.2347819563913065,6.242868573714771,6.250955191038236,6.259041808361701,6.267128425685166,6.275215043008631,6.283301660332095,6.291388277655559,6.299474894979024,6.307561512302489,6.315648129625954,6.323734746949419,6.331821364272884,6.339907981596348,6.347994598919813,6.356081216243277,6.364167833566742,6.372254450890207,6.380341068213672,6.3884276855371365,6.396514302860601,6.404600920184066,6.412687537507531,6.420774154830996,6.42886077215446,6.4369473894779246,6.445034006801389,6.453120624124854,6.461207241448319,6.469293858771784,6.477380476095249,6.4854670934187135,6.493553710742178,6.501640328065642,6.509726945389107,6.517813562712572,6.525900180036037,6.533986797359502,6.542073414682966,6.550160032006431,6.558246649329896,6.566333266653361,6.574419883976825,6.58250650130029,6.5905931186237545,6.598679735947219,6.606766353270684,6.614852970594149,6.622939587917614,6.631026205241079,6.6391128225645435,6.647199439888007,6.655286057211472,6.663372674534937,6.671459291858402,6.679545909181867,6.687632526505332,6.695719143828796,6.703805761152261,6.711892378475726,6.71997899579919,6.728065613122655,6.73615223044612,6.7442388477695845,6.752325465093049,6.760412082416514,6.768498699739979,6.776585317063444,6.784671934386909,6.792758551710373,6.800845169033837,6.808931786357302,6.817018403680767,6.825105021004232,6.833191638327697,6.8412782556511615,6.849364872974626,6.857451490298091,6.865538107621555,6.87362472494502,6.881711342268485,6.88979795959195,6.8978845769154145,6.905971194238879,6.914057811562344,6.922144428885809,6.930231046209274,6.938317663532738,6.9464042808562025,6.954490898179667,6.962577515503132,6.970664132826597,6.978750750150062,6.986837367473527,6.9949239847969915,7.003010602120456,7.01109721944392,7.019183836767385,7.02727045409085,7.035357071414315,7.04344368873778,7.051530306061244,7.059616923384709,7.067703540708174,7.075790158031639,7.083876775355103,7.091963392678568,7.1000500100020325,7.108136627325497,7.116223244648962,7.124309861972427,7.132396479295892,7.140483096619357,7.1485697139428215,7.156656331266285,7.16474294858975,7.172829565913215,7.18091618323668,7.189002800560145,7.19708941788361,7.205176035207074,7.213262652530539,7.221349269854004,7.229435887177468,7.237522504500933,7.245609121824398,7.2536957391478625,7.261782356471327,7.269868973794792,7.277955591118257,7.286042208441722,7.294128825765187,7.302215443088651,7.310302060412115,7.31838867773558,7.326475295059045,7.33456191238251,7.342648529705975,7.3507351470294395,7.358821764352904,7.366908381676369,7.374994998999833,7.383081616323298,7.391168233646763,7.399254850970228,7.407341468293692,7.415428085617157,7.423514702940622,7.431601320264087,7.439687937587552,7.447774554911016,7.4558611722344805,7.463947789557945,7.47203440688141,7.480121024204875,7.48820764152834,7.496294258851805,7.5043808761752695,7.512467493498734,7.520554110822198,7.528640728145663,7.536727345469128,7.544813962792593,7.552900580116058,7.560987197439522,7.569073814762987,7.577160432086452,7.585247049409917,7.593333666733381,7.601420284056846,7.6095069013803105,7.617593518703775,7.62568013602724,7.633766753350705,7.64185337067417,7.649939987997635,7.6580266053210995,7.666113222644563,7.674199839968028,7.682286457291493,7.690373074614958,7.698459691938423,7.7065463092618876,7.714632926585352,7.722719543908817,7.730806161232282,7.738892778555746,7.746979395879211,7.755066013202676,7.7631526305261405,7.771239247849605,7.77932586517307,7.787412482496535,7.79549909982,7.803585717143465,7.8116723344669285,7.819758951790393,7.827845569113858,7.835932186437323,7.844018803760788,7.852105421084253,7.8601920384077175,7.868278655731182,7.876365273054647,7.884451890378111,7.892538507701576,7.900625125025041,7.908711742348506,7.91679835967197,7.924884976995435,7.9329715943189,7.941058211642365,7.94914482896583,7.957231446289294,7.9653180636127585,7.973404680936223,7.981491298259688,7.989577915583153,7.997664532906618,8.005751150230083,8.013837767553547,8.021924384877012,8.030011002200476,8.038097619523942,8.046184236847406,8.054270854170872,8.062357471494336,8.0704440888178,8.078530706141265,8.08661732346473,8.094703940788195,8.102790558111659,8.110877175435125,8.118963792758588,8.127050410082054,8.135137027405518,8.143223644728982,8.151310262052448,8.159396879375912,8.167483496699377,8.175570114022841,8.183656731346307,8.191743348669771,8.199829965993237,8.2079165833167,8.216003200640165,8.22408981796363,8.232176435287094,8.24026305261056,8.248349669934024,8.25643628725749,8.264522904580954,8.27260952190442,8.280696139227883,8.288782756551347,8.296869373874813,8.304955991198277,8.313042608521743,8.321129225845207,8.329215843168672,8.337302460492136,8.345389077815602,8.353475695139066,8.36156231246253,8.369648929785996,8.37773554710946,8.385822164432925,8.393908781756389,8.401995399079855,8.410082016403319,8.418168633726784,8.426255251050248,8.434341868373712,8.442428485697178,8.450515103020642,8.458601720344108,8.466688337667572,8.474774954991037,8.482861572314501,8.490948189637967,8.499034806961431,8.507121424284895,8.51520804160836,8.523294658931825,8.53138127625529,8.539467893578754,8.54755451090222,8.555641128225684,8.56372774554915,8.571814362872614,8.579900980196077,8.587987597519543,8.596074214843007,8.604160832166473,8.612247449489937,8.620334066813403,8.628420684136866,8.636507301460332,8.644593918783796,8.65268053610726,8.660767153430726,8.66885377075419,8.676940388077655,8.68502700540112,8.693113622724585,8.701200240048049,8.709286857371515,8.717373474694979,8.725460092018443,8.733546709341908,8.741633326665372,8.749719943988838,8.757806561312302,8.765893178635768,8.773979795959232,8.782066413282697,8.790153030606161,8.798239647929625,8.806326265253091,8.814412882576555,8.82249949990002,8.830586117223485,8.83867273454695,8.846759351870414,8.85484596919388,8.862932586517344,8.871019203840808,8.879105821164273,8.887192438487737,8.895279055811203,8.903365673134667,8.911452290458133,8.919538907781597,8.927625525105062,8.935712142428526,8.94379875975199,8.951885377075456,8.95997199439892,8.968058611722386,8.97614522904585,8.984231846369315,8.99231846369278,9.000405081016245,9.008491698339709,9.016578315663173,9.024664932986639,9.032751550310103,9.040838167633568,9.048924784957032,9.057011402280498,9.065098019603962,9.073184636927428,9.081271254250892,9.089357871574355,9.097444488897821,9.105531106221285,9.11361772354475,9.121704340868215,9.12979095819168,9.137877575515144,9.14596419283861,9.154050810162074,9.162137427485538,9.170224044809004,9.178310662132468,9.186397279455933,9.194483896779397,9.202570514102863,9.210657131426327,9.218743748749793,9.226830366073257,9.23491698339672,9.243003600720186,9.25109021804365,9.259176835367116,9.26726345269058,9.275350070014046,9.28343668733751,9.291523304660975,9.29960992198444,9.307696539307903,9.315783156631369,9.323869773954833,9.331956391278299,9.340043008601763,9.348129625925228,9.356216243248692,9.364302860572158,9.372389477895622,9.380476095219086,9.388562712542551,9.396649329866015,9.404735947189481,9.412822564512945,9.42090918183641,9.428995799159875,9.43708241648334,9.445169033806804,9.453255651130268,9.461342268453734,9.469428885777198,9.477515503100664,9.485602120424128,9.493688737747593,9.501775355071057,9.509861972394523,9.517948589717987,9.526035207041451,9.534121824364917,9.54220844168838,9.550295059011846,9.55838167633531,9.566468293658776,9.57455491098224,9.582641528305706,9.59072814562917,9.598814762952633,9.6069013802761,9.614987997599563,9.623074614923029,9.631161232246493,9.639247849569959,9.647334466893422,9.655421084216888,9.663507701540352,9.671594318863816,9.679680936187282,9.687767553510746,9.695854170834211,9.703940788157675,9.712027405481141,9.720114022804605,9.72820064012807,9.736287257451535,9.744373874774999,9.752460492098464,9.760547109421928,9.768633726745394,9.776720344068858,9.784806961392324,9.792893578715788,9.800980196039253,9.809066813362717,9.817153430686181,9.825240048009647,9.83332666533311,9.841413282656577,9.84949989998004,9.857586517303506,9.86567313462697,9.873759751950436,9.8818463692739,9.889932986597364,9.89801960392083,9.906106221244293,9.91419283856776,9.922279455891223,9.930366073214689,9.938452690538153,9.946539307861618,9.954625925185082,9.962712542508546,9.970799159832012,9.978885777155476,9.986972394478942,9.995059011802406,10.003145629125871,10.011232246449335,10.019318863772801,10.027405481096265,10.035492098419729,10.043578715743195,10.051665333066659,10.059751950390124,10.067838567713588,10.075925185037054,10.084011802360518,10.092098419683984,10.100185037007448,10.108271654330911,10.116358271654377,10.124444888977841,10.132531506301307,10.14061812362477,10.148704740948236,10.1567913582717,10.164877975595166,10.17296459291863,10.181051210242094,10.18913782756556,10.197224444889024,10.20531106221249,10.213397679535953,10.221484296859419,10.229570914182883,10.237657531506349,10.245744148829813,10.253830766153277,10.261917383476742,10.270004000800206,10.278090618123672,10.286177235447136,10.294263852770602,10.302350470094066,10.310437087417531,10.318523704740995,10.32661032206446,10.334696939387925,10.342783556711389,10.350870174034855,10.358956791358318,10.367043408681784,10.375130026005248,10.383216643328714,10.391303260652178,10.399389877975642,10.407476495299107,10.415563112622571,10.423649729946037,10.431736347269501,10.439822964592967,10.44790958191643,10.455996199239896,10.46408281656336,10.472169433886824,10.48025605121029,10.488342668533754,10.49642928585722,10.504515903180684,10.51260252050415,10.520689137827613,10.528775755151079,10.536862372474543,10.544948989798007,10.553035607121473,10.561122224444937,10.569208841768402,10.577295459091866,10.585382076415332,10.593468693738796,10.601555311062262,10.609641928385726,10.61772854570919,10.625815163032655,10.633901780356119,10.641988397679585,10.650075015003049,10.658161632326514,10.666248249649978,10.674334866973444,10.682421484296908,10.690508101620372,10.698594718943838,10.706681336267302,10.714767953590767,10.722854570914231,10.730941188237697,10.739027805561161,10.747114422884627,10.75520104020809,10.763287657531555,10.77137427485502,10.779460892178484,10.78754750950195,10.795634126825414,10.80372074414888,10.811807361472344,10.81989397879581,10.827980596119273,10.836067213442737,10.844153830766203,10.852240448089667,10.860327065413133,10.868413682736596,10.876500300060062,10.884586917383526,10.892673534706992,10.900760152030456,10.90884676935392,10.916933386677385,10.92502000400085,10.933106621324315,10.941193238647779,10.949279855971245,10.957366473294709,10.965453090618174,10.973539707941638,10.981626325265102,10.989712942588568,10.997799559912032,11.005886177235498,11.013972794558962,11.022059411882427,11.030146029205891,11.038232646529357,11.046319263852821,11.054405881176285,11.06249249849975,11.070579115823215,11.07866573314668,11.086752350470144,11.09483896779361,11.102925585117074,11.11101220244054,11.119098819764003,11.127185437087467,11.135272054410933,11.143358671734397,11.151445289057863,11.159531906381327,11.167618523704792,11.175705141028256,11.183791758351722,11.191878375675186,11.19996499299865,11.208051610322116,11.21613822764558,11.224224844969045,11.23231146229251,11.240398079615975,11.248484696939439,11.256571314262905,11.264657931586369,11.272744548909833,11.280831166233298,11.288917783556762,11.297004400880228,11.305091018203692,11.313177635527158,11.321264252850622,11.329350870174087,11.337437487497551,11.345524104821015,11.35361072214448,11.361697339467945,11.36978395679141,11.377870574114874,11.38595719143834,11.394043808761804,11.40213042608527,11.410217043408734,11.418303660732198,11.426390278055663,11.434476895379127,11.442563512702593,11.450650130026057,11.458736747349523,11.466823364672987,11.474909981996452,11.482996599319916,11.49108321664338,11.499169833966846,11.50725645129031,11.515343068613776,11.52342968593724,11.531516303260705,11.53960292058417,11.547689537907635,11.555776155231099,11.563862772554563,11.571949389878029,11.580036007201493,11.588122624524958,11.596209241848422,11.604295859171888,11.612382476495352,11.620469093818818,11.628555711142281,11.636642328465745,11.644728945789211,11.652815563112675,11.66090218043614,11.668988797759605,11.67707541508307,11.685162032406534,11.69324864973,11.701335267053464,11.709421884376928,11.717508501700394,11.725595119023858,11.733681736347323,11.741768353670787,11.749854970994253,11.757941588317717,11.766028205641183,11.774114822964647,11.78220144028811,11.790288057611576,11.79837467493504,11.806461292258506,11.81454790958197,11.822634526905436,11.8307211442289,11.838807761552365,11.84689437887583,11.854980996199293,11.863067613522759,11.871154230846223,11.879240848169689,11.887327465493152,11.895414082816618,11.903500700140082,11.911587317463548,11.919673934787012,11.927760552110476,11.935847169433941,11.943933786757405,11.952020404080871,11.960107021404335,11.9681936387278,11.976280256051265,11.98436687337473,11.992453490698194,12.000540108021658,12.008626725345124,12.016713342668588,12.024799959992054,12.032886577315518,12.040973194638983,12.049059811962447,12.057146429285913,12.065233046609377,12.07331966393284,12.081406281256307,12.08949289857977,12.097579515903236,12.1056661332267,12.113752750550166,12.12183936787363,12.129925985197096,12.13801260252056,12.146099219844023,12.15418583716749,12.162272454490953,12.170359071814419,12.178445689137883,12.186532306461348,12.194618923784812,12.202705541108278,12.210792158431742,12.218878775755206,12.226965393078672,12.235052010402136,12.243138627725601,12.251225245049065,12.259311862372531,12.267398479695995,12.27548509701946,12.283571714342925,12.291658331666389,12.299744948989854,12.307831566313318,12.315918183636784,12.324004800960248,12.332091418283714,12.340178035607178,12.348264652930643,12.356351270254107,12.364437887577571,12.372524504901037,12.3806111222245,12.388697739547966,12.39678435687143,12.404870974194896,12.41295759151836,12.421044208841824,12.42913082616529,12.437217443488754,12.44530406081222,12.453390678135683,12.461477295459149,12.469563912782613,12.477650530106079,12.485737147429543,12.493823764753007,12.501910382076472,12.509996999399936,12.518083616723402,12.526170234046866,12.534256851370332,12.542343468693796,12.550430086017261,12.558516703340725,12.56660332066419,12.574689937987655,12.582776555311119,12.590863172634585,12.598949789958048,12.607036407281514,12.615123024604978,12.623209641928444,12.631296259251908,12.639382876575372,12.647469493898837,12.655556111222301,12.663642728545767,12.671729345869231,12.679815963192697,12.68790258051616,12.695989197839626,12.70407581516309,12.712162432486554,12.72024904981002,12.728335667133484,12.73642228445695,12.744508901780414,12.75259551910388,12.760682136427343,12.768768753750809,12.776855371074273,12.784941988397737,12.793028605721203,12.801115223044667,12.809201840368132,12.817288457691596,12.825375075015062,12.833461692338526,12.841548309661992,12.849634926985456,12.85772154430892,12.865808161632385,12.873894778955849,12.881981396279315,12.890068013602779,12.898154630926244,12.906241248249708,12.914327865573174,12.922414482896638,12.930501100220102,12.938587717543568,12.946674334867032,12.954760952190497,12.962847569513961,12.970934186837427,12.979020804160891,12.987107421484357,12.99519403880782,13.003280656131285,13.01136727345475,13.019453890778214,13.02754050810168,13.035627125425144,13.04371374274861,13.051800360072074,13.05988697739554,13.067973594719003,13.076060212042467,13.084146829365933,13.092233446689397,13.100320064012863,13.108406681336326,13.116493298659792,13.124579915983256,13.132666533306722,13.140753150630186,13.14883976795365,13.156926385277115,13.16501300260058,13.173099619924045,13.181186237247509,13.189272854570975,13.197359471894439,13.205446089217904,13.213532706541368,13.221619323864832,13.229705941188298,13.237792558511762,13.245879175835228,13.253965793158692,13.262052410482157,13.270139027805621,13.278225645129087,13.286312262452551,13.294398879776015,13.30248549709948,13.310572114422945,13.31865873174641,13.326745349069874,13.33483196639334,13.342918583716804,13.35100520104027,13.359091818363733,13.367178435687197,13.375265053010663,13.383351670334127,13.391438287657593,13.399524904981057,13.407611522304522,13.415698139627986,13.423784756951452,13.431871374274916,13.43995799159838,13.448044608921846,13.45613122624531,13.464217843568775,13.47230446089224,13.480391078215705,13.488477695539169,13.496564312862635,13.504650930186099,13.512737547509563,13.520824164833028,13.528910782156492,13.536997399479958,13.545084016803422,13.553170634126888,13.561257251450352,13.569343868773817,13.577430486097281,13.585517103420745,13.59360372074421,13.601690338067675,13.60977695539114,13.617863572714604,13.62595019003807,13.634036807361534,13.642123424685,13.650210042008464,13.658296659331928,13.666383276655393,13.674469893978857,13.682556511302323,13.690643128625787,13.698729745949253,13.706816363272717,13.714902980596182,13.722989597919646,13.73107621524311,13.739162832566576,13.74724944989004,13.755336067213506,13.76342268453697,13.771509301860435,13.7795959191839,13.787682536507365,13.795769153830829,13.803855771154293,13.811942388477759,13.820029005801223,13.828115623124688,13.836202240448152,13.844288857771618,13.852375475095082,13.860462092418548,13.868548709742011,13.876635327065475,13.884721944388941,13.892808561712405,13.90089517903587,13.908981796359335,13.9170684136828,13.925155031006264,13.93324164832973,13.941328265653194,13.949414882976658,13.957501500300124,13.965588117623588,13.973674734947053,13.981761352270517,13.989847969593983,13.997934586917447,14.006021204240913,14.014107821564377,14.02219443888784,14.030281056211306,14.03836767353477,14.046454290858236,14.0545409081817,14.062627525505166,14.07071414282863,14.078800760152095,14.08688737747556,14.094973994799023,14.103060612122489,14.111147229445953,14.119233846769419,14.127320464092882,14.135407081416348,14.143493698739812,14.151580316063278,14.159666933386742,14.167753550710206,14.175840168033671,14.183926785357135,14.192013402680601,14.200100020004065,14.20818663732753,14.216273254650995,14.22435987197446,14.232446489297924,14.240533106621388,14.248619723944854,14.256706341268318,14.264792958591784,14.272879575915248,14.280966193238713,14.289052810562177,14.297139427885643,14.305226045209107,14.31331266253257,14.321399279856037,14.3294858971795,14.337572514502966,14.34565913182643,14.353745749149896,14.36183236647336,14.369918983796826,14.37800560112029,14.386092218443753,14.39417883576722,14.402265453090683,14.410352070414149,14.418438687737613,14.426525305061078,14.434611922384542,14.442698539708008,14.450785157031472,14.458871774354936,14.466958391678402,14.475045009001866,14.483131626325331,14.491218243648795,14.499304860972261,14.507391478295725,14.51547809561919,14.523564712942655,14.531651330266119,14.539737947589584,14.547824564913048,14.555911182236514,14.563997799559978,14.572084416883444,14.580171034206908,14.588257651530373,14.596344268853837,14.604430886177301,14.612517503500767,14.62060412082423,14.628690738147696,14.63677735547116,14.644863972794626,14.65295059011809,14.661037207441556,14.66912382476502,14.677210442088484,14.68529705941195,14.693383676735413,14.701470294058879,14.709556911382343,14.717643528705809,14.725730146029273,14.733816763352738,14.741903380676202,14.749989997999666,14.758076615323132,14.766163232646596,14.774249849970062,14.782336467293526,14.790423084616991,14.798509701940455,14.806596319263921,14.814682936587385,14.822769553910849,14.830856171234315,14.838942788557778,14.847029405881244,14.855116023204708,14.863202640528174,14.871289257851638,14.879375875175104,14.887462492498567,14.895549109822031,14.903635727145497,14.911722344468961,14.919808961792427,14.92789557911589,14.935982196439356,14.94406881376282,14.952155431086286,14.96024204840975,14.968328665733214,14.97641528305668,14.984501900380144,14.99258851770361,15.000675135027073,15.008761752350539,15.016848369674003,15.024934986997469,15.033021604320933,15.041108221644397,15.049194838967862,15.057281456291326,15.065368073614792,15.073454690938256,15.081541308261722,15.089627925585186,15.097714542908651,15.105801160232115,15.113887777555579,15.121974394879045,15.130061012202509,15.138147629525974,15.146234246849438,15.154320864172904,15.162407481496368,15.170494098819834,15.178580716143298,15.186667333466762,15.194753950790227,15.202840568113691,15.210927185437157,15.219013802760621,15.227100420084087,15.23518703740755,15.243273654731016,15.25136027205448,15.259446889377944,15.26753350670141,15.275620124024874,15.28370674134834,15.291793358671804,15.29987997599527,15.307966593318733,15.316053210642199,15.324139827965663,15.332226445289127,15.340313062612593,15.348399679936056,15.356486297259522,15.364572914582986,15.372659531906452,15.380746149229916,15.388832766553382,15.396919383876845,15.40500600120031,15.413092618523775,15.421179235847239,15.429265853170705,15.437352470494169,15.445439087817634,15.453525705141098,15.461612322464564,15.469698939788028,15.477785557111492,15.485872174434958,15.493958791758422,15.502045409081887,15.510132026405351,15.518218643728817,15.526305261052281,15.534391878375747,15.54247849569921,15.550565113022675,15.55865173034614,15.566738347669604,15.57482496499307,15.582911582316534,15.59099819964,15.599084816963463,15.60717143428693,15.615258051610393,15.623344668933857,15.631431286257323,15.639517903580787,15.647604520904252,15.655691138227716,15.663777755551182,15.671864372874646,15.679950990198112,15.688037607521576,15.69612422484504,15.704210842168505,15.71229745949197,15.720384076815435,15.728470694138899,15.736557311462365,15.744643928785829,15.752730546109294,15.760817163432758,15.768903780756222,15.776990398079688,15.785077015403152,15.793163632726618,15.801250250050082,15.809336867373547,15.817423484697011,15.825510102020477,15.83359671934394,15.841683336667405,15.84976995399087,15.857856571314334,15.8659431886378,15.874029805961264,15.88211642328473,15.890203040608194,15.89828965793166,15.906376275255123,15.914462892578587,15.922549509902053,15.930636127225517,15.938722744548983,15.946809361872447,15.954895979195912,15.962982596519376,15.971069213842842,15.979155831166306,15.98724244848977,15.995329065813236,16.0034156831367,16.011502300460165,16.01958891778363,16.027675535107093,16.03576215243056,16.043848769754025,16.05193538707749,16.060022004400953,16.068108621724416,16.076195239047884,16.084281856371348,16.092368473694812,16.100455091018276,16.108541708341743,16.116628325665207,16.12471494298867,16.132801560312135,16.1408881776356,16.148974794959067,16.15706141228253,16.165148029605994,16.17323464692946,16.181321264252926,16.18940788157639,16.197494498899854,16.205581116223318,16.21366773354678,16.22175435087025,16.229840968193713,16.237927585517177,16.24601420284064,16.25410082016411,16.262187437487572,16.270274054811036,16.2783606721345,16.286447289457964,16.29453390678143,16.302620524104896,16.31070714142836,16.318793758751823,16.32688037607529,16.334966993398755,16.34305361072222,16.351140228045683,16.359226845369147,16.367313462692614,16.375400080016078,16.383486697339542,16.391573314663006,16.399659931986474,16.407746549309937,16.4158331666334,16.423919783956865,16.43200640128033,16.440093018603797,16.44817963592726,16.456266253250725,16.46435287057419,16.472439487897656,16.48052610522112,16.488612722544584,16.496699339868048,16.504785957191512,16.51287257451498,16.520959191838443,16.529045809161907,16.53713242648537,16.54521904380884,16.553305661132303,16.561392278455767,16.56947889577923,16.577565513102694,16.585652130426162,16.593738747749626,16.60182536507309,16.609911982396554,16.61799859972002,16.626085217043485,16.63417183436695,16.642258451690413,16.650345069013877,16.658431686337345,16.66651830366081,16.674604920984272,16.682691538307736,16.690778155631204,16.698864772954668,16.70695139027813,16.715038007601596,16.72312462492506,16.731211242248527,16.73929785957199,16.747384476895455,16.75547109421892,16.763557711542386,16.77164432886585,16.779730946189314,16.787817563512778,16.795904180836242,16.80399079815971,16.812077415483174,16.820164032806638,16.8282506501301,16.83633726745357,16.844423884777033,16.852510502100497,16.86059711942396,16.868683736747425,16.876770354070892,16.884856971394356,16.89294358871782,16.901030206041284,16.90911682336475,16.917203440688215,16.92529005801168,16.933376675335143,16.941463292658607,16.949549909982075,16.95763652730554,16.965723144629003,16.973809761952467,16.981896379275934,16.989982996599398,16.998069613922862,17.006156231246326,17.01424284856979,17.022329465893257,17.03041608321672,17.038502700540185,17.04658931786365,17.054675935187117,17.06276255251058,17.070849169834045,17.07893578715751,17.087022404480972,17.09510902180444,17.103195639127904,17.111282256451368,17.11936887377483,17.1274554910983,17.135542108421763,17.143628725745227,17.15171534306869,17.159801960392155,17.167888577715622,17.175975195039086,17.18406181236255,17.192148429686014,17.200235047009482,17.208321664332946,17.21640828165641,17.224494898979874,17.232581516303338,17.240668133626805,17.24875475095027,17.256841368273733,17.264927985597197,17.273014602920664,17.28110122024413,17.289187837567592,17.297274454891056,17.30536107221452,17.313447689537988,17.32153430686145,17.329620924184916,17.33770754150838,17.345794158831847,17.35388077615531,17.361967393478775,17.37005401080224,17.378140628125703,17.38622724544917,17.394313862772634,17.402400480096098,17.410487097419562,17.41857371474303,17.426660332066493,17.434746949389957,17.44283356671342,17.450920184036885,17.459006801360353,17.467093418683817,17.47518003600728,17.483266653330745,17.491353270654212,17.499439887977676,17.50752650530114,17.515613122624604,17.523699739948068,17.531786357271535,17.539872974595,17.547959591918463,17.556046209241927,17.564132826565395,17.57221944388886,17.580306061212323,17.588392678535786,17.59647929585925,17.604565913182718,17.612652530506182,17.620739147829646,17.62882576515311,17.636912382476577,17.64499899980004,17.653085617123505,17.66117223444697,17.669258851770433,17.6773454690939,17.685432086417364,17.69351870374083,17.701605321064292,17.70969193838776,17.717778555711224,17.725865173034688,17.73395179035815,17.742038407681616,17.750125025005083,17.758211642328547,17.76629825965201,17.774384876975475,17.782471494298942,17.790558111622406,17.79864472894587,17.806731346269334,17.814817963592798,17.822904580916266,17.83099119823973,17.839077815563193,17.847164432886657,17.855251050210125,17.86333766753359,17.871424284857053,17.879510902180517,17.88759751950398,17.895684136827448,17.903770754150912,17.911857371474376,17.91994398879784,17.928030606121307,17.93611722344477,17.944203840768235,17.9522904580917,17.960377075415163,17.96846369273863,17.976550310062095,17.98463692738556,17.992723544709023,18.00081016203249,18.008896779355954,18.016983396679418,18.025070014002882,18.033156631326346,18.041243248649813,18.049329865973277,18.05741648329674,18.065503100620205,18.073589717943673,18.081676335267137,18.0897629525906,18.097849569914064,18.10593618723753,18.114022804560996,18.12210942188446,18.130196039207924,18.138282656531388,18.146369273854855,18.15445589117832,18.162542508501783,18.170629125825247,18.17871574314871,18.18680236047218,18.194888977795642,18.202975595119106,18.21106221244257,18.219148829766038,18.2272354470895,18.235322064412966,18.24340868173643,18.251495299059894,18.25958191638336,18.267668533706825,18.27575515103029,18.283841768353753,18.29192838567722,18.300015003000684,18.30810162032415,18.316188237647612,18.324274854971076,18.332361472294544,18.340448089618008,18.34853470694147,18.356621324264935,18.364707941588403,18.372794558911867,18.38088117623533,18.388967793558795,18.39705441088226,18.405141028205726,18.41322764552919,18.421314262852654,18.429400880176118,18.437487497499585,18.44557411482305,18.453660732146513,18.461747349469977,18.46983396679344,18.47792058411691,18.486007201440373,18.494093818763837,18.5021804360873,18.510267053410768,18.518353670734232,18.526440288057696,18.53452690538116,18.542613522704624,18.55070014002809,18.558786757351555,18.56687337467502,18.574959991998483,18.58304660932195,18.591133226645415,18.59921984396888,18.607306461292342,18.615393078615806,18.623479695939274,18.631566313262738,18.6396529305862,18.647739547909666,18.655826165233133,18.663912782556597,18.67199939988006,18.680086017203525,18.68817263452699,18.696259251850456,18.70434586917392,18.712432486497384,18.72051910382085,18.728605721144316,18.73669233846778,18.744778955791244,18.752865573114708,18.76095219043817,18.76903880776164,18.777125425085103,18.785212042408567,18.79329865973203,18.8013852770555,18.809471894378962,18.817558511702426,18.82564512902589,18.833731746349354,18.84181836367282,18.849904980996286,18.85799159831975,18.866078215643213,18.87416483296668,18.882251450290145,18.89033806761361,18.898424684937073,18.906511302260537,18.914597919584004,18.922684536907468,18.930771154230932,18.938857771554396,18.946944388877863,18.955031006201327,18.96311762352479,18.971204240848255,18.97929085817172,18.987377475495187,18.99546409281865,19.003550710142115,19.01163732746558,19.019723944789046,19.02781056211251,19.035897179435974,19.043983796759438,19.052070414082902,19.06015703140637,19.068243648729833,19.076330266053297,19.08441688337676,19.09250350070023,19.100590118023693,19.108676735347156,19.11676335267062,19.124849969994084,19.132936587317552,19.141023204641016,19.14910982196448,19.157196439287944,19.16528305661141,19.173369673934875,19.18145629125834,19.189542908581803,19.197629525905267,19.205716143228734,19.2138027605522,19.221889377875662,19.229975995199126,19.238062612522594,19.246149229846058,19.25423584716952,19.262322464492986,19.27040908181645,19.278495699139917,19.28658231646338,19.294668933786845,19.30275555111031,19.310842168433776,19.31892878575724,19.327015403080704,19.335102020404168,19.343188637727632,19.3512752550511,19.359361872374564,19.367448489698027,19.37553510702149,19.38362172434496,19.391708341668423,19.399794958991887,19.40788157631535,19.415968193638815,19.424054810962282,19.432141428285746,19.44022804560921,19.448314662932674,19.45640128025614,19.464487897579605,19.47257451490307,19.480661132226533,19.488747749549997,19.496834366873465,19.50492098419693,19.513007601520393,19.521094218843857,19.529180836167324,19.537267453490788,19.545354070814252,19.553440688137716,19.56152730546118,19.569613922784647,19.57770054010811,19.585787157431575,19.59387377475504,19.601960392078507,19.61004700940197,19.618133626725434,19.6262202440489,19.634306861372362,19.64239347869583,19.650480096019294,19.658566713342758,19.66665333066622,19.67473994798969,19.682826565313153,19.690913182636617,19.69899979996008,19.707086417283545,19.715173034607012,19.723259651930476,19.73134626925394,19.739432886577404,19.74751950390087,19.755606121224336,19.7636927385478,19.771779355871264,19.779865973194728,19.787952590518195,19.79603920784166,19.804125825165123,19.812212442488587,19.820299059812054,19.82838567713552,19.836472294458982,19.844558911782446,19.85264552910591,19.860732146429378,19.86881876375284,19.876905381076305,19.88499199839977,19.893078615723237,19.9011652330467,19.909251850370165,19.91733846769363,19.925425085017093,19.93351170234056,19.941598319664024,19.949684936987488,19.957771554310952,19.96585817163442,19.973944788957883,19.982031406281347,19.99011802360481,19.998204640928275,20.006291258251743,20.014377875575207,20.02246449289867,20.030551110222135,20.038637727545602,20.046724344869066,20.05481096219253,20.062897579515994,20.070984196839458,20.079070814162925,20.08715743148639,20.095244048809853,20.103330666133317,20.111417283456785,20.11950390078025,20.127590518103712,20.135677135427176,20.14376375275064,20.151850370074108,20.159936987397572,20.168023604721036,20.1761102220445,20.184196839367967,20.19228345669143,20.200370074014895,20.20845669133836,20.216543308661823,20.22462992598529,20.232716543308754,20.24080316063222,20.248889777955682,20.25697639527915,20.265063012602614,20.273149629926078,20.28123624724954,20.289322864573005,20.297409481896473,20.305496099219937,20.3135827165434,20.321669333866865,20.329755951190332,20.337842568513796,20.34592918583726,20.354015803160724,20.362102420484188,20.370189037807656,20.37827565513112,20.386362272454583,20.394448889778047,20.402535507101515,20.41062212442498,20.418708741748443,20.426795359071907,20.43488197639537,20.442968593718838,20.451055211042302,20.459141828365766,20.46722844568923,20.475315063012697,20.48340168033616,20.491488297659625,20.49957491498309,20.507661532306553,20.51574814963002,20.523834766953485,20.53192138427695,20.540008001600413,20.54809461892388,20.556181236247344,20.564267853570808,20.572354470894272,20.580441088217736,20.588527705541203,20.596614322864667,20.60470094018813,20.612787557511595,20.620874174835063,20.628960792158527,20.63704740948199,20.645134026805454,20.65322064412892,20.661307261452386,20.66939387877585,20.677480496099314,20.685567113422778,20.693653730746245,20.70174034806971,20.709826965393173,20.717913582716637,20.7260002000401,20.73408681736357,20.742173434687032,20.750260052010496,20.75834666933396,20.766433286657428,20.77451990398089,20.782606521304356,20.79069313862782,20.798779755951283,20.80686637327475,20.814952990598215,20.82303960792168,20.831126225245143,20.83921284256861,20.847299459892074,20.855386077215538,20.863472694539002,20.871559311862466,20.879645929185934,20.887732546509397,20.89581916383286,20.903905781156325,20.911992398479793,20.920079015803257,20.92816563312672,20.936252250450185,20.94433886777365,20.952425485097116,20.96051210242058,20.968598719744044,20.976685337067508,20.984771954390975,20.99285857171444,21.000945189037903,21.009031806361367,21.01711842368483,21.0252050410083,21.033291658331763,21.041378275655227,21.04946489297869,21.057551510302158,21.065638127625622,21.073724744949086,21.08181136227255,21.089897979596014,21.09798459691948,21.106071214242945,21.11415783156641,21.122244448889873,21.13033106621334,21.138417683536805,21.14650430086027,21.154590918183732,21.162677535507196,21.170764152830664,21.178850770154128,21.18693738747759,21.195024004801056,21.203110622124523,21.211197239447987,21.21928385677145,21.227370474094915,21.23545709141838,21.243543708741846,21.25163032606531,21.259716943388774,21.267803560712238,21.275890178035706,21.28397679535917,21.292063412682634,21.300150030006098,21.30823664732956,21.31632326465303,21.324409881976493,21.332496499299957,21.34058311662342,21.34866973394689,21.356756351270352,21.364842968593816,21.37292958591728,21.381016203240744,21.38910282056421,21.397189437887675,21.40527605521114,21.413362672534603,21.42144928985807,21.429535907181535,21.437622524505,21.445709141828463,21.453795759151927,21.461882376475394,21.469968993798858,21.478055611122322,21.486142228445786,21.494228845769253,21.502315463092717,21.51040208041618,21.518488697739645,21.52657531506311,21.534661932386577,21.54274854971004,21.550835167033505,21.55892178435697,21.567008401680436,21.5750950190039,21.583181636327364,21.591268253650828,21.59935487097429,21.60744148829776,21.615528105621223,21.623614722944687,21.63170134026815,21.63978795759162,21.647874574915082,21.655961192238546,21.66404780956201,21.672134426885474,21.680221044208942,21.688307661532406,21.69639427885587,21.704480896179334,21.7125675135028,21.720654130826265,21.72874074814973,21.736827365473193,21.744913982796657,21.753000600120124,21.76108721744359,21.769173834767052,21.777260452090516,21.785347069413984,21.793433686737448,21.80152030406091,21.809606921384376,21.81769353870784,21.825780156031307,21.83386677335477,21.841953390678235,21.8500400080017,21.858126625325166,21.86621324264863,21.874299859972094,21.882386477295558,21.890473094619022,21.89855971194249,21.906646329265953,21.914732946589417,21.92281956391288,21.93090618123635,21.938992798559813,21.947079415883277,21.95516603320674,21.963252650530205,21.971339267853672,21.979425885177136,21.9875125025006,21.995599119824064,22.00368573714753,22.011772354470995,22.01985897179446,22.027945589117923,22.036032206441387,22.044118823764855,22.05220544108832,22.060292058411783,22.068378675735246,22.076465293058714,22.084551910382178,22.092638527705642,22.100725145029106,22.10881176235257,22.116898379676037,22.1249849969995,22.133071614322965,22.14115823164643,22.149244848969897,22.15733146629336,22.165418083616824,22.17350470094029,22.181591318263752,22.18967793558722,22.197764552910684,22.205851170234148,22.21393778755761,22.22202440488108,22.230111022204543,22.238197639528007,22.24628425685147,22.254370874174935,22.262457491498402,22.270544108821866,22.27863072614533,22.286717343468794,22.29480396079226,22.302890578115726,22.31097719543919,22.319063812762653,22.327150430086117,22.335237047409585,22.34332366473305,22.351410282056513,22.359496899379977,22.367583516703444,22.375670134026908,22.383756751350372,22.391843368673836,22.3999299859973,22.408016603320768,22.41610322064423,22.424189837967695,22.43227645529116,22.440363072614627,22.44844968993809,22.456536307261555,22.46462292458502,22.472709541908483,22.48079615923195,22.488882776555414,22.496969393878878,22.505056011202342,22.51314262852581,22.521229245849273,22.529315863172737,22.5374024804962,22.545489097819665,22.553575715143133,22.561662332466597,22.56974894979006,22.577835567113524,22.585922184436992,22.594008801760456,22.60209541908392,22.610182036407384,22.618268653730848,22.626355271054315,22.63444188837778,22.642528505701243,22.650615123024707,22.658701740348175,22.66678835767164,22.674874974995102,22.682961592318566,22.69104820964203,22.699134826965498,22.70722144428896,22.715308061612426,22.72339467893589,22.731481296259357,22.73956791358282,22.747654530906285,22.75574114822975,22.763827765553213,22.77191438287668,22.780001000200144,22.78808761752361,22.796174234847072,22.80426085217054,22.812347469494004,22.820434086817468,22.82852070414093,22.836607321464395,22.844693938787863,22.852780556111327,22.86086717343479,22.868953790758255,22.877040408081722,22.885127025405186,22.89321364272865,22.901300260052114,22.909386877375578,22.917473494699045,22.92556011202251,22.933646729345973,22.941733346669437,22.949819963992905,22.95790658131637,22.965993198639833,22.974079815963297,22.98216643328676,22.990253050610228,22.998339667933692,23.006426285257156,23.01451290258062,23.022599519904087,23.03068613722755,23.038772754551015,23.04685937187448,23.054945989197943,23.06303260652141,23.071119223844875,23.07920584116834,23.087292458491802,23.09537907581527,23.103465693138734,23.111552310462198,23.11963892778566,23.127725545109126,23.135812162432593,23.143898779756057,23.15198539707952,23.160072014402985,23.168158631726453,23.176245249049916,23.18433186637338,23.192418483696844,23.20050510102031,23.208591718343776,23.21667833566724,23.224764952990704,23.232851570314168,23.240938187637635,23.2490248049611,23.257111422284563,23.265198039608027,23.27328465693149,23.28137127425496,23.289457891578422,23.297544508901886,23.30563112622535,23.313717743548818,23.32180436087228,23.329890978195746,23.33797759551921,23.346064212842673,23.35415083016614,23.362237447489605,23.37032406481307,23.378410682136533,23.38649729946,23.394583916783464,23.402670534106928,23.410757151430392,23.418843768753856,23.426930386077323,23.435017003400787,23.44310362072425,23.451190238047715,23.459276855371183,23.467363472694647,23.47545009001811,23.483536707341575,23.49162332466504,23.499709941988506,23.50779655931197,23.515883176635434,23.523969793958898,23.532056411282365,23.54014302860583,23.548229645929293,23.556316263252757,23.56440288057622,23.57248949789969,23.580576115223153,23.588662732546616,23.59674934987008,23.604835967193548,23.612922584517012,23.621009201840476,23.62909581916394,23.637182436487404,23.64526905381087,23.653355671134335,23.6614422884578,23.669528905781263,23.67761552310473,23.685702140428194,23.69378875775166,23.701875375075122,23.709961992398586,23.718048609722054,23.726135227045518,23.73422184436898,23.742308461692446,23.750395079015913,23.758481696339377,23.76656831366284,23.774654930986305,23.78274154830977,23.790828165633236,23.7989147829567,23.807001400280164,23.815088017603628,23.823174634927096,23.83126125225056,23.839347869574024,23.847434486897487,23.85552110422095,23.86360772154442,23.871694338867883,23.879780956191347,23.88786757351481,23.895954190838278,23.904040808161742,23.912127425485206,23.92021404280867,23.928300660132134,23.9363872774556,23.944473894779065,23.95256051210253,23.960647129425993,23.96873374674946,23.976820364072925,23.98490698139639,23.992993598719853,24.001080216043317,24.009166833366784,24.017253450690248,24.025340068013712,24.033426685337176,24.041513302660643,24.049599919984107,24.05768653730757,24.065773154631035,24.0738597719545,24.081946389277967,24.09003300660143,24.098119623924894,24.10620624124836,24.114292858571826,24.12237947589529,24.130466093218754,24.138552710542218,24.14663932786568,24.15472594518915,24.162812562512613,24.170899179836077,24.17898579715954,24.18707241448301,24.195159031806472,24.203245649129936,24.2113322664534,24.219418883776864,24.22750550110033,24.235592118423796,24.24367873574726,24.251765353070724,24.25985197039419,24.267938587717655,24.27602520504112,24.284111822364583,24.292198439688047,24.300285057011514,24.30837167433498,24.316458291658442,24.324544908981906,24.332631526305374,24.340718143628838,24.3488047609523,24.356891378275765,24.36497799559923,24.373064612922697,24.38115123024616,24.389237847569625,24.39732446489309,24.405411082216556,24.41349769954002,24.421584316863484,24.429670934186948,24.437757551510412,24.44584416883388,24.453930786157343,24.462017403480807,24.47010402080427,24.47819063812774,24.486277255451203,24.494363872774667,24.50245049009813,24.510537107421595,24.518623724745062,24.526710342068526,24.53479695939199,24.542883576715454,24.55097019403892,24.559056811362385,24.56714342868585,24.575230046009313,24.583316663332777,24.591403280656245,24.59948989797971,24.607576515303172,24.615663132626636,24.623749749950104,24.631836367273568,24.639922984597032,24.648009601920496,24.65609621924396,24.664182836567427,24.67226945389089,24.680356071214355,24.68844268853782,24.696529305861286,24.70461592318475,24.712702540508214,24.72078915783168,24.728875775155142,24.73696239247861,24.745049009802074,24.753135627125538,24.761222244449,24.76930886177247,24.777395479095933,24.785482096419397,24.79356871374286,24.801655331066325,24.809741948389792,24.817828565713256,24.82591518303672,24.834001800360184,24.842088417683648,24.850175035007116,24.85826165233058,24.866348269654043,24.874434886977507,24.882521504300975,24.89060812162444,24.898694738947903,24.906781356271367,24.91486797359483,24.922954590918298,24.931041208241762,24.939127825565226,24.94721444288869,24.955301060212157,24.96338767753562,24.971474294859085,24.97956091218255,24.987647529506013,24.99573414682948,25.003820764152945,25.01190738147641,25.019993998799873,25.02808061612334,25.036167233446804,25.044253850770268,25.052340468093732,25.060427085417196,25.068513702740663,25.076600320064127,25.08468693738759,25.092773554711055,25.100860172034523,25.108946789357987,25.11703340668145,25.125120024004914,25.13320664132838,25.141293258651846,25.14937987597531,25.157466493298774,25.165553110622238,25.173639727945705,25.18172634526917,25.189812962592633,25.197899579916097,25.20598619723956,25.21407281456303,25.222159431886492,25.230246049209956,25.23833266653342,25.246419283856888,25.25450590118035,25.262592518503816,25.27067913582728,25.278765753150743,25.28685237047421,25.294938987797675,25.30302560512114,25.311112222444603,25.31919883976807,25.327285457091534,25.335372074414998,25.343458691738462,25.351545309061926,25.359631926385394,25.367718543708857,25.37580516103232,25.383891778355785,25.391978395679253,25.400065013002717,25.40815163032618,25.416238247649645,25.42432486497311,25.432411482296576,25.44049809962004,25.448584716943504,25.456671334266968,25.464757951590435,25.4728445689139,25.480931186237363,25.489017803560827,25.49710442088429,25.50519103820776,25.513277655531223,25.521364272854687,25.52945089017815,25.537537507501618,25.545624124825082,25.553710742148546,25.56179735947201,25.569883976795474,25.57797059411894,25.586057211442405,25.59414382876587,25.602230446089333,25.6103170634128,25.618403680736265,25.62649029805973,25.634576915383192,25.642663532706656,25.650750150030124,25.658836767353588,25.66692338467705,25.675010002000516,25.683096619323983,25.691183236647447,25.69926985397091,25.707356471294375,25.71544308861784,25.723529705941306,25.73161632326477,25.739702940588234,25.747789557911698,25.755876175235166,25.76396279255863,25.772049409882094,25.780136027205558,25.78822264452902,25.79630926185249,25.804395879175953,25.812482496499417,25.82056911382288,25.82865573114635,25.836742348469812,25.844828965793276,25.85291558311674,25.861002200440204,25.86908881776367,25.877175435087135,25.8852620524106,25.893348669734063,25.90143528705753,25.909521904380995,25.91760852170446,25.925695139027923,25.933781756351387,25.941868373674854,25.949954990998318,25.958041608321782,25.966128225645246,25.974214842968713,25.982301460292177,25.99038807761564,25.998474694939105,26.00656131226257,26.014647929586037,26.0227345469095,26.030821164232965,26.03890778155643,26.046994398879896,26.05508101620336,26.063167633526824,26.071254250850288,26.07934086817375,26.08742748549722,26.095514102820683,26.103600720144147,26.11168733746761,26.11977395479108,26.127860572114542,26.135947189438006,26.14403380676147,26.152120424084934,26.160207041408402,26.168293658731866,26.17638027605533,26.184466893378794,26.19255351070226,26.200640128025725,26.20872674534919,26.216813362672653,26.224899979996117,26.232986597319584,26.24107321464305,26.249159831966512,26.257246449289976,26.265333066613444,26.273419683936908,26.28150630126037,26.289592918583836,26.2976795359073,26.305766153230767,26.31385277055423,26.321939387877695,26.33002600520116,26.338112622524626,26.34619923984809,26.354285857171554,26.362372474495018,26.370459091818482,26.37854570914195,26.386632326465413,26.394718943788877,26.40280556111234,26.41089217843581,26.418978795759273,26.427065413082737,26.4351520304062,26.443238647729665,26.451325265053132,26.459411882376596,26.46749849970006,26.475585117023524,26.48367173434699,26.491758351670455,26.49984496899392,26.507931586317383,26.516018203640847,26.524104820964315,26.53219143828778,26.540278055611243,26.548364672934706,26.556451290258174,26.564537907581638,26.572624524905102,26.580711142228566,26.58879775955203,26.596884376875497,26.60497099419896,26.613057611522425,26.62114422884589,26.629230846169357,26.63731746349282,26.645404080816284,26.65349069813975,26.661577315463212,26.66966393278668,26.677750550110144,26.685837167433608,26.69392378475707,26.70201040208054,26.710097019404003,26.718183636727467,26.72627025405093,26.734356871374395,26.742443488697862,26.750530106021326,26.75861672334479,26.766703340668254,26.77478995799172,26.782876575315186,26.79096319263865,26.799049809962113,26.807136427285577,26.815223044609045,26.82330966193251,26.831396279255973,26.839482896579437,26.847569513902904,26.855656131226368,26.863742748549832,26.871829365873296,26.87991598319676,26.888002600520228,26.89608921784369,26.904175835167155,26.91226245249062,26.920349069814087,26.92843568713755,26.936522304461015,26.94460892178448,26.952695539107943,26.96078215643141,26.968868773754874,26.976955391078338,26.985042008401802,26.99312862572527,27.001215243048733,27.009301860372197,27.01738847769566,27.025475095019125,27.033561712342593,27.041648329666057,27.04973494698952,27.057821564312984,27.065908181636452,27.073994798959916,27.08208141628338,27.090168033606844,27.098254650930308,27.106341268253775,27.11442788557724,27.122514502900703,27.130601120224167,27.138687737547635,27.1467743548711,27.154860972194562,27.162947589518026,27.17103420684149,27.179120824164958,27.18720744148842,27.195294058811886,27.20338067613535,27.211467293458817,27.21955391078228,27.227640528105745,27.23572714542921,27.243813762752673,27.25190038007614,27.259986997399604,27.26807361472307,27.276160232046532,27.28424684937,27.292333466693464,27.300420084016928,27.30850670134039,27.316593318663855,27.324679935987323,27.332766553310787,27.34085317063425,27.348939787957715,27.357026405281182,27.365113022604646,27.37319963992811,27.381286257251574,27.389372874575038,27.397459491898505,27.40554610922197,27.413632726545433,27.421719343868897,27.429805961192365,27.43789257851583,27.445979195839293,27.454065813162757,27.46215243048622,27.470239047809688,27.478325665133152,27.486412282456616,27.49449889978008,27.502585517103547,27.51067213442701,27.518758751750475,27.52684536907394,27.534931986397403,27.54301860372087,27.551105221044335,27.5591918383678,27.567278455691262,27.57536507301473,27.583451690338194,27.591538307661658,27.59962492498512,27.607711542308586,27.615798159632053,27.623884776955517,27.63197139427898,27.640058011602445,27.648144628925913,27.656231246249376,27.66431786357284,27.672404480896304,27.68049109821977,27.688577715543236,27.6966643328667,27.704750950190164,27.712837567513628,27.720924184837095,27.72901080216056,27.737097419484023,27.745184036807487,27.75327065413095,27.76135727145442,27.769443888777882,27.777530506101346,27.78561712342481,27.793703740748278,27.80179035807174,27.809876975395206,27.81796359271867,27.826050210042133,27.8341368273656,27.842223444689065,27.85031006201253,27.858396679335993,27.86648329665946,27.874569913982924,27.882656531306388,27.890743148629852,27.898829765953316,27.906916383276783,27.915003000600247,27.92308961792371,27.931176235247175,27.939262852570643,27.947349469894107,27.95543608721757,27.963522704541035,27.9716093218645,27.979695939187966,27.98778255651143,27.995869173834894,28.003955791158358,28.012042408481825,28.02012902580529,28.028215643128753,28.036302260452217,28.04438887777568,28.05247549509915,28.060562112422613,28.068648729746076,28.07673534706954,28.084821964393008,28.092908581716472,28.100995199039936,28.1090818163634,28.117168433686864,28.12525505101033,28.133341668333795,28.14142828565726,28.149514902980723,28.15760152030419,28.165688137627654,28.17377475495112,28.181861372274582,28.189947989598046,28.198034606921514,28.206121224244978,28.21420784156844,28.222294458891906,28.230381076215373,28.238467693538837,28.2465543108623,28.254640928185765,28.26272754550923,28.270814162832696,28.27890078015616,28.286987397479624,28.295074014803088,28.303160632126556,28.31124724945002,28.319333866773484,28.327420484096947,28.33550710142041,28.34359371874388,28.351680336067343,28.359766953390807,28.36785357071427,28.375940188037738,28.384026805361202,28.392113422684666,28.40020004000813,28.408286657331594,28.41637327465506,28.424459891978525,28.43254650930199,28.440633126625453,28.44871974394892,28.456806361272385,28.46489297859585,28.472979595919313,28.481066213242777,28.489152830566244,28.497239447889708,28.505326065213172,28.513412682536636,28.521499299860103,28.529585917183567,28.53767253450703,28.545759151830495,28.55384576915396,28.561932386477427,28.57001900380089,28.578105621124354,28.58619223844782,28.594278855771286,28.60236547309475,28.610452090418214,28.618538707741678,28.62662532506514,28.63471194238861,28.642798559712073,28.650885177035537,28.658971794359,28.66705841168247,28.675145029005932,28.683231646329396,28.69131826365286,28.699404880976324,28.70749149829979,28.715578115623256,28.72366473294672,28.731751350270184,28.73983796759365,28.747924584917115,28.75601120224058,28.764097819564043,28.772184436887507,28.780271054210974,28.78835767153444,28.796444288857902,28.804530906181366,28.812617523504834,28.820704140828298,28.82879075815176,28.836877375475225,28.84496399279869,28.853050610122157,28.86113722744562,28.869223844769085,28.87731046209255,28.885397079416016,28.89348369673948,28.901570314062944,28.909656931386408,28.917743548709872,28.92583016603334,28.933916783356803,28.942003400680267,28.95009001800373,28.9581766353272,28.966263252650663,28.974349869974127,28.98243648729759,28.990523104621055,28.998609721944522,29.006696339267986,29.01478295659145,29.022869573914914,29.03095619123838,29.039042808561845,29.04712942588531,29.055216043208773,29.063302660532237,29.071389277855705,29.07947589517917,29.087562512502632,29.095649129826096,29.103735747149564,29.111822364473028,29.119908981796492,29.127995599119956,29.13608221644342,29.144168833766887,29.15225545109035,29.160342068413815,29.16842868573728,29.176515303060746,29.18460192038421,29.192688537707674,29.20077515503114,29.208861772354602,29.21694838967807,29.225035007001534,29.233121624324998,29.24120824164846,29.24929485897193,29.257381476295393,29.265468093618857,29.27355471094232,29.281641328265785,29.289727945589252,29.297814562912716,29.30590118023618,29.313987797559644,29.32207441488311,29.330161032206576,29.33824764953004,29.346334266853503,29.354420884176967,29.362507501500435,29.3705941188239,29.378680736147363,29.386767353470827,29.394853970794294,29.402940588117758,29.411027205441222,29.419113822764686,29.42720044008815,29.435287057411617,29.44337367473508,29.451460292058545,29.45954690938201,29.467633526705477,29.47572014402894,29.483806761352405,29.49189337867587,29.499979995999333,29.5080666133228,29.516153230646264,29.524239847969728,29.532326465293192,29.54041308261666,29.548499699940123,29.556586317263587,29.56467293458705,29.572759551910515,29.580846169233983,29.588932786557447,29.59701940388091,29.605106021204374,29.613192638527842,29.621279255851306,29.62936587317477,29.637452490498234,29.645539107821698,29.653625725145165,29.66171234246863,29.669798959792093,29.677885577115557,29.685972194439024,29.69405881176249,29.702145429085952,29.710232046409416,29.71831866373288,29.726405281056348,29.73449189837981,29.742578515703276,29.75066513302674,29.758751750350207,29.76683836767367,29.774924984997135,29.7830116023206,29.791098219644063,29.79918483696753,29.807271454290994,29.815358071614458,29.823444688937922,29.83153130626139,29.839617923584854,29.847704540908317,29.85579115823178,29.863877775555245,29.871964392878713,29.880051010202177,29.88813762752564,29.896224244849105,29.904310862172572,29.912397479496036,29.9204840968195,29.928570714142964,29.936657331466428,29.944743948789895,29.95283056611336,29.960917183436823,29.969003800760287,29.977090418083755,29.98517703540722,29.993263652730683,30.001350270054147,30.00943688737761,30.017523504701078,30.025610122024542,30.033696739348006,30.04178335667147,30.049869973994937,30.0579565913184,30.066043208641865,30.07412982596533,30.082216443288793,30.09030306061226,30.098389677935725,30.10647629525919,30.114562912582652,30.12264952990612,30.130736147229584,30.138822764553048,30.14690938187651,30.154995999199976,30.163082616523443,30.171169233846907,30.17925585117037,30.187342468493835,30.195429085817302,30.203515703140766,30.21160232046423,30.219688937787694,30.227775555111158,30.235862172434626,30.24394878975809,30.252035407081554,30.260122024405018,30.268208641728485,30.27629525905195,30.284381876375413,30.292468493698877,30.30055511102234,30.30864172834581,30.316728345669272,30.324814962992736,30.3329015803162,30.340988197639668,30.34907481496313,30.357161432286595,30.36524804961006,30.373334666933523,30.38142128425699,30.389507901580455,30.39759451890392,30.405681136227383,30.41376775355085,30.421854370874314,30.429940988197778,30.438027605521242,30.446114222844706,30.454200840168173,30.462287457491637,30.4703740748151,30.478460692138565,30.486547309462033,30.494633926785497,30.50272054410896,30.510807161432425,30.51889377875589,30.526980396079356,30.53506701340282,30.543153630726284,30.551240248049748,30.559326865373215,30.56741348269668,30.575500100020143,30.583586717343607,30.59167333466707,30.59975995199054,30.607846569314002,30.615933186637466,30.62401980396093,30.632106421284398,30.640193038607862,30.648279655931326,30.65636627325479,30.664452890578254,30.67253950790172,30.680626125225185,30.68871274254865,30.696799359872113,30.70488597719558,30.712972594519044,30.72105921184251,30.729145829165972,30.737232446489436,30.745319063812904,30.753405681136368,30.76149229845983,30.769578915783296,30.777665533106763,30.785752150430227,30.79383876775369,30.801925385077155,30.81001200240062,30.818098619724086,30.82618523704755,30.834271854371014,30.842358471694478,30.850445089017946,30.85853170634141,30.866618323664873,30.874704940988337,30.8827915583118,30.89087817563527,30.898964792958733,30.907051410282197,30.91513802760566,30.923224644929128,30.931311262252592,30.939397879576056,30.94748449689952,30.955571114222984,30.96365773154645,30.971744348869915,30.97983096619338,30.987917583516843,30.99600420084031,31.004090818163775,31.01217743548724,31.020264052810703,31.028350670134166,31.036437287457634,31.044523904781098,31.052610522104562,31.060697139428026,31.068783756751493,31.076870374074957,31.08495699139842,31.093043608721885,31.10113022604535,31.109216843368817,31.11730346069228,31.125390078015744,31.13347669533921,31.141563312662676,31.14964992998614,31.157736547309604,31.165823164633068,31.17390978195653,31.18199639928,31.190083016603463,31.198169633926927,31.20625625125039,31.21434286857386,31.222429485897322,31.230516103220786,31.23860272054425,31.246689337867714,31.25477595519118,31.262862572514646,31.27094918983811,31.279035807161574,31.28712242448504,31.295209041808505,31.30329565913197,31.311382276455433,31.319468893778897,31.327555511102364,31.335642128425828,31.343728745749292,31.351815363072756,31.359901980396224,31.367988597719688,31.37607521504315,31.384161832366615,31.39224844969008,31.400335067013547,31.40842168433701,31.416508301660475,31.42459491898394,31.432681536307406,31.44076815363087,31.448854770954334,31.456941388277798,31.465028005601262,31.47311462292473,31.481201240248193,31.489287857571657,31.49737447489512,31.50546109221859,31.513547709542053,31.521634326865517,31.52972094418898,31.537807561512444,31.545894178835912,31.553980796159376,31.56206741348284,31.570154030806304,31.57824064812977,31.586327265453235,31.5944138827767,31.602500500100163,31.610587117423627,31.618673734747095,31.62676035207056,31.634846969394022,31.642933586717486,31.651020204040954,31.659106821364418,31.66719343868788,31.675280056011346,31.68336667333481,31.691453290658277,31.69953990798174,31.707626525305205,31.71571314262867,31.723799759952136,31.7318863772756,31.739972994599064,31.74805961192253,31.756146229245992,31.76423284656946,31.772319463892924,31.780406081216388,31.78849269853985,31.79657931586332,31.804665933186783,31.812752550510247,31.82083916783371,31.828925785157175,31.837012402480642,31.845099019804106,31.85318563712757,31.861272254451034,31.8693588717745,31.877445489097965,31.88553210642143,31.893618723744893,31.901705341068357,31.909791958391825,31.91787857571529,31.925965193038753,31.934051810362217,31.942138427685684,31.950225045009148,31.958311662332612,31.966398279656076,31.97448489697954,31.982571514303007,31.99065813162647,31.998744748949935,32.0068313662734,32.01491798359687,32.02300460092033,32.031091218243795,32.03917783556726,32.04726445289072,32.055351070214186,32.06343768753765,32.07152430486112,32.079610922184585,32.08769753950805,32.09578415683151,32.10387077415498,32.11195739147844,32.120044008801905,32.12813062612537,32.13621724344883,32.144303860772304,32.15239047809577,32.16047709541923,32.168563712742696,32.17665033006616,32.184736947389624,32.19282356471309,32.20091018203655,32.208996799360015,32.21708341668349,32.22517003400695,32.233256651330414,32.24134326865388,32.24942988597734,32.257516503300806,32.26560312062427,32.273689737947734,32.2817763552712,32.28986297259467,32.29794958991813,32.3060362072416,32.31412282456506,32.322209441888525,32.33029605921199,32.33838267653545,32.34646929385892,32.35455591118238,32.36264252850585,32.370729145829316,32.37881576315278,32.38690238047624,32.39498899779971,32.40307561512317,32.411162232446635,32.4192488497701,32.42733546709356,32.435422084417034,32.4435087017405,32.45159531906396,32.459681936387426,32.46776855371089,32.475855171034354,32.48394178835782,32.49202840568128,32.500115023004746,32.50820164032822,32.51628825765168,32.524374874975145,32.53246149229861,32.54054810962207,32.54863472694554,32.556721344269,32.564807961592464,32.57289457891593,32.5809811962394,32.58906781356286,32.59715443088633,32.60524104820979,32.613327665533255,32.62141428285672,32.62950090018018,32.63758751750365,32.64567413482711,32.65376075215058,32.661847369474046,32.66993398679751,32.678020604120974,32.68610722144444,32.6941938387679,32.702280456091366,32.71036707341483,32.71845369073829,32.726540308061765,32.73462692538523,32.74271354270869,32.750800160032156,32.75888677735562,32.766973394679084,32.77506001200255,32.78314662932601,32.791233246649476,32.79931986397295,32.80740648129641,32.815493098619875,32.82357971594334,32.8316663332668,32.83975295059027,32.84783956791373,32.855926185237195,32.86401280256066,32.87209941988413,32.880186037207594,32.88827265453106,32.89635927185452,32.904445889177985,32.91253250650145,32.92061912382491,32.92870574114838,32.93679235847184,32.94487897579531,32.952965593118776,32.96105221044224,32.969138827765704,32.97722544508917,32.98531206241263,32.993398679736096,33.00148529705956,33.009571914383024,33.017658531706495,33.02574514902996,33.03383176635342,33.04191838367689,33.05000500100035,33.058091618323814,33.06617823564728,33.07426485297074,33.082351470294206,33.09043808761768,33.09852470494114,33.106611322264605,33.11469793958807,33.12278455691153,33.130871174235,33.13895779155846,33.147044408881925,33.15513102620539,33.16321764352886,33.171304260852324,33.17939087817579,33.18747749549925,33.195564112822716,33.20365073014618,33.211737347469644,33.21982396479311,33.22791058211657,33.23599719944004,33.244083816763506,33.25217043408697,33.260257051410434,33.2683436687339,33.27643028605736,33.284516903380826,33.29260352070429,33.300690138027754,33.308776755351225,33.31686337267469,33.32494998999815,33.33303660732162,33.34112322464508,33.349209841968545,33.35729645929201,33.36538307661547,33.37346969393894,33.38155631126241,33.38964292858587,33.397729545909336,33.4058161632328,33.41390278055626,33.42198939787973,33.43007601520319,33.438162632526655,33.44624924985012,33.45433586717359,33.462422484497054,33.47050910182052,33.47859571914398,33.486682336467446,33.49476895379091,33.502855571114374,33.51094218843784,33.5190288057613,33.52711542308477,33.53520204040824,33.5432886577317,33.551375275055165,33.55946189237863,33.56754850970209,33.575635127025556,33.58372174434902,33.591808361672484,33.599894978995955,33.60798159631942,33.61606821364288,33.62415483096635,33.63224144828981,33.640328065613275,33.64841468293674,33.6565013002602,33.66458791758367,33.67267453490714,33.6807611522306,33.688847769554066,33.69693438687753,33.705021004200994,33.71310762152446,33.72119423884792,33.729280856171385,33.73736747349485,33.74545409081832,33.753540708141784,33.76162732546525,33.76971394278871,33.777800560112176,33.78588717743564,33.793973794759104,33.80206041208257,33.81014702940603,33.8182336467295,33.82632026405297,33.83440688137643,33.842493498699895,33.85058011602336,33.85866673334682,33.86675335067029,33.87483996799375,33.882926585317215,33.891013202640686,33.89909981996415,33.90718643728761,33.91527305461108,33.92335967193454,33.931446289258005,33.93953290658147,33.94761952390493,33.9557061412284,33.96379275855187,33.97187937587533,33.979965993198796,33.98805261052226,33.996139227845724,34.00422584516919,34.01231246249265,34.020399079816116,34.02848569713958,34.03657231446305,34.044658931786515,34.05274554910998,34.06083216643344,34.06891878375691,34.07700540108037,34.085092018403834,34.0931786357273,34.10126525305076,34.10935187037423,34.1174384876977,34.12552510502116,34.133611722344625,34.14169833966809,34.14978495699155,34.15787157431502,34.16595819163848,34.174044808961945,34.182131426285416,34.19021804360888,34.198304660932344,34.20639127825581,34.21447789557927,34.222564512902736,34.2306511302262,34.23873774754966,34.24682436487313,34.2549109821966,34.26299759952006,34.271084216843526,34.27917083416699,34.287257451490454,34.29534406881392,34.30343068613738,34.311517303460846,34.31960392078431,34.32769053810778,34.335777155431245,34.34386377275471,34.35195039007817,34.36003700740164,34.3681236247251,34.376210242048565,34.38429685937203,34.39238347669549,34.400470094018964,34.40855671134243,34.41664332866589,34.424729945989355,34.43281656331282,34.44090318063628,34.44898979795975,34.45707641528321,34.465163032606675,34.473249649930146,34.48133626725361,34.489422884577074,34.49750950190054,34.505596119224,34.513682736547466,34.52176935387093,34.529855971194394,34.53794258851786,34.54602920584133,34.55411582316479,34.56220244048826,34.57028905781172,34.578375675135185,34.58646229245865,34.59454890978211,34.602635527105576,34.61072214442904,34.61880876175251,34.626895379075975,34.63498199639944,34.6430686137229,34.65115523104637,34.65924184836983,34.667328465693295,34.67541508301676,34.68350170034022,34.691588317663694,34.69967493498716,34.70776155231062,34.715848169634086,34.72393478695755,34.732021404281014,34.74010802160448,34.74819463892794,34.756281256251405,34.76436787357488,34.77245449089834,34.780541108221804,34.78862772554527,34.79671434286873,34.804800960192196,34.81288757751566,34.820974194839124,34.82906081216259,34.83714742948606,34.84523404680952,34.85332066413299,34.86140728145645,34.869493898779915,34.87758051610338,34.88566713342684,34.89375375075031,34.90184036807377,34.90992698539724,34.918013602720706,34.92610022004417,34.93418683736763,34.9422734546911,34.95036007201456,34.958446689338025,34.96653330666149,34.97461992398495,34.982706541308424,34.99079315863189,34.99887977595535,35.006966393278816,35.01505301060228,35.023139627925744,35.03122624524921,35.03931286257267,35.047399479896136,35.05548609721961,35.06357271454307,35.071659331866535,35.07974594919,35.08783256651346,35.095919183836926,35.10400580116039,35.112092418483854,35.12017903580732,35.12826565313079,35.13635227045425,35.14443888777772,35.15252550510118,35.160612122424645,35.16869873974811,35.17678535707157,35.18487197439504,35.1929585917185,35.20104520904197,35.209131826365436,35.2172184436889,35.225305061012364,35.23339167833583,35.24147829565929,35.249564912982756,35.25765153030622,35.26573814762968,35.273824764953154,35.28191138227662,35.28999799960008,35.298084616923546,35.30617123424701,35.314257851570474,35.32234446889394,35.3304310862174,35.338517703540866,35.34660432086434,35.3546909381878,35.362777555511265,35.37086417283473,35.37895079015819,35.38703740748166,35.39512402480512,35.403210642128585,35.41129725945205,35.41938387677552,35.42747049409898,35.43555711142245,35.44364372874591,35.451730346069375,35.45981696339284,35.4679035807163,35.47599019803977,35.48407681536323,35.4921634326867,35.500250050010166,35.50833666733363,35.516423284657094,35.52450990198056,35.53259651930402,35.540683136627486,35.54876975395095,35.556856371274414,35.564942988597885,35.57302960592135,35.58111622324481,35.58920284056828,35.59728945789174,35.605376075215204,35.61346269253867,35.62154930986213,35.629635927185596,35.63772254450907,35.64580916183253,35.653895779155995,35.66198239647946,35.67006901380292,35.67815563112639,35.68624224844985,35.694328865773315,35.70241548309678,35.71050210042025,35.718588717743714,35.72667533506718,35.73476195239064,35.742848569714106,35.75093518703757,35.75902180436103,35.7671084216845,35.77519503900796,35.78328165633143,35.791368273654896,35.79945489097836,35.807541508301824,35.81562812562529,35.82371474294875,35.831801360272216,35.83988797759568,35.847974594919144,35.856061212242615,35.86414782956608,35.87223444688954,35.88032106421301,35.88840768153647,35.896494298859935,35.9045809161834,35.91266753350686,35.92075415083033,35.9288407681538,35.93692738547726,35.945014002800725,35.95310062012419,35.96118723744765,35.96927385477112,35.97736047209458,35.985447089418045,35.99353370674151,36.00162032406498,36.009706941388444,36.01779355871191,36.02588017603537,36.033966793358836,36.0420534106823,36.050140028005764,36.05822664532923,36.06631326265269,36.07439987997616,36.08248649729963,36.09057311462309,36.098659731946555,36.10674634927002,36.11483296659348,36.122919583916946,36.13100620124041,36.139092818563874,36.147179435887345,36.15526605321081,36.16335267053427,36.17143928785774,36.1795259051812,36.187612522504665,36.19569913982813,36.20378575715159,36.21187237447506,36.21995899179853,36.22804560912199,36.236132226445456,36.24421884376892,36.252305461092384,36.26039207841585,36.26847869573931,36.276565313062775,36.28465193038624,36.29273854770971,36.300825165033174,36.30891178235664,36.3169983996801,36.325085017003566,36.33317163432703,36.341258251650494,36.34934486897396,36.35743148629742,36.36551810362089,36.37360472094436,36.38169133826782,36.389777955591285,36.39786457291475,36.40595119023821,36.41403780756168,36.42212442488514,36.430211042208605,36.438297659532076,36.44638427685554,36.454470894179,36.46255751150247,36.47064412882593,36.478730746149395,36.48681736347286,36.49490398079632,36.50299059811979,36.51107721544326,36.51916383276672,36.527250450090186,36.53533706741365,36.543423684737114,36.55151030206058,36.55959691938404,36.567683536707506,36.57577015403097,36.58385677135444,36.591943388677905,36.60003000600137,36.60811662332483,36.6162032406483,36.62428985797176,36.632376475295224,36.64046309261869,36.64854970994215,36.65663632726562,36.66472294458909,36.67280956191255,36.680896179236015,36.68898279655948,36.69706941388294,36.70515603120641,36.71324264852987,36.721329265853335,36.729415883176806,36.73750250050027,36.745589117823734,36.7536757351472,36.76176235247066,36.769848969794126,36.77793558711759,36.78602220444105,36.79410882176452,36.80219543908799,36.81028205641145,36.818368673734916,36.82645529105838,36.834541908381844,36.84262852570531,36.85071514302877,36.858801760352236,36.8668883776757,36.87497499499917,36.883061612322635,36.8911482296461,36.89923484696956,36.90732146429303,36.91540808161649,36.923494698939955,36.93158131626342,36.93966793358688,36.94775455091035,36.95584116823382,36.96392778555728,36.972014402880745,36.98010102020421,36.98818763752767,36.99627425485114,37.0043608721746,37.012447489498065,37.020534106821536,37.028620724145,37.036707341468464,37.04479395879193,37.05288057611539,37.060967193438856,37.06905381076232,37.077140428085784,37.08522704540925,37.09331366273272,37.10140028005618,37.10948689737965,37.11757351470311,37.125660132026574,37.13374674935004,37.1418333666735,37.149919983996966,37.15800660132043,37.1660932186439,37.174179835967365,37.18226645329083,37.19035307061429,37.19843968793776,37.20652630526122,37.214612922584685,37.22269953990815,37.23078615723161,37.238872774555084,37.24695939187855,37.25504600920201,37.263132626525476,37.27121924384894,37.2793058611724,37.28739247849587,37.29547909581933,37.303565713142795,37.311652330466266,37.31973894778973,37.327825565113194,37.33591218243666,37.34399879976012,37.352085417083586,37.36017203440705,37.368258651730514,37.37634526905398,37.38443188637745,37.39251850370091,37.40060512102438,37.40869173834784,37.416778355671305,37.42486497299477,37.43295159031823,37.4410382076417,37.44912482496516,37.45721144228863,37.465298059612095,37.47338467693556,37.48147129425902,37.48955791158249,37.49764452890595,37.505731146229415,37.51381776355288,37.52190438087634,37.529990998199814,37.53807761552328,37.54616423284674,37.554250850170206,37.56233746749367,37.570424084817134,37.5785107021406,37.58659731946406,37.594683936787526,37.602770554111,37.61085717143446,37.618943788757925,37.62703040608139,37.63511702340485,37.643203640728316,37.65129025805178,37.659376875375244,37.66746349269871,37.67555011002218,37.68363672734564,37.69172334466911,37.69980996199257,37.707896579316035,37.7159831966395,37.72406981396296,37.73215643128643,37.74024304860989,37.74832966593336,37.756416283256826,37.76450290058029,37.772589517903754,37.78067613522722,37.78876275255068,37.796849369874145,37.80493598719761,37.81302260452107,37.821109221844544,37.82919583916801,37.83728245649147,37.845369073814936,37.8534556911384,37.861542308461864,37.86962892578533,37.87771554310879,37.885802160432256,37.89388877775573,37.90197539507919,37.910062012402655,37.91814862972612,37.92623524704958,37.93432186437305,37.94240848169651,37.950495099019975,37.95858171634344,37.96666833366691,37.97475495099037,37.98284156831384,37.9909281856373,37.999014802960765,38.00710142028423,38.01518803760769,38.02327465493116,38.03136127225462,38.03944788957809,38.047534506901556,38.05562112422502,38.063707741548484,38.07179435887195,38.07988097619541,38.087967593518876,38.09605421084234,38.104140828165804,38.112227445489275,38.12031406281274,38.1284006801362,38.13648729745967,38.14457391478313,38.152660532106594,38.16074714943006,38.16883376675352,38.176920384076986,38.18500700140046,38.19309361872392,38.201180236047385,38.20926685337085,38.21735347069431,38.22544008801778,38.23352670534124,38.241613322664705,38.24969993998817,38.25778655731164,38.265873174635104,38.27395979195857,38.28204640928203,38.290133026605496,38.29821964392896,38.30630626125242,38.31439287857589,38.32247949589935,38.33056611322282,38.338652730546286,38.34673934786975,38.354825965193214,38.36291258251668,38.37099919984014,38.379085817163606,38.38717243448707,38.395259051810534,38.403345669134005,38.41143228645747,38.41951890378093,38.4276055211044,38.43569213842786,38.443778755751325,38.45186537307479,38.45995199039825,38.46803860772172,38.47612522504519,38.48421184236865,38.492298459692115,38.50038507701558,38.50847169433904,38.51655831166251,38.52464492898597,38.532731546309435,38.5408181636329,38.54890478095637,38.556991398279834,38.5650780156033,38.57316463292676,38.581251250250226,38.58933786757369,38.597424484897154,38.60551110222062,38.61359771954408,38.62168433686755,38.62977095419102,38.63785757151448,38.645944188837944,38.65403080616141,38.66211742348487,38.670204040808336,38.6782906581318,38.686377275455264,38.694463892778735,38.7025505101022,38.71063712742566,38.71872374474913,38.72681036207259,38.734896979396055,38.74298359671952,38.75107021404298,38.75915683136645,38.76724344868992,38.77533006601338,38.783416683336846,38.79150330066031,38.79958991798377,38.80767653530724,38.8157631526307,38.823849769954165,38.83193638727763,38.8400230046011,38.848109621924564,38.85619623924803,38.86428285657149,38.872369473894956,38.88045609121842,38.888542708541884,38.89662932586535,38.90471594318881,38.91280256051228,38.92088917783575,38.92897579515921,38.937062412482675,38.94514902980614,38.9532356471296,38.96132226445307,38.96940888177653,38.977495499099994,38.985582116423465,38.99366873374693,39.00175535107039,39.00984196839386,39.01792858571732,39.026015203040785,39.03410182036425,39.04218843768771,39.05027505501118,39.05836167233465,39.06644828965811,39.074534906981576,39.08262152430504,39.090708141628504,39.09879475895197,39.10688137627543,39.114967993598896,39.12305461092236,39.13114122824583,39.139227845569295,39.14731446289276,39.15540108021622,39.163487697539686,39.17157431486315,39.179660932186614,39.18774754951008,39.19583416683354,39.20392078415701,39.21200740148048,39.22009401880394,39.228180636127405,39.23626725345087,39.24435387077433,39.2524404880978,39.26052710542126,39.268613722744725,39.276700340068196,39.28478695739166,39.292873574715124,39.30096019203859,39.30904680936205,39.317133426685515,39.32522004400898,39.33330666133244,39.34139327865591,39.34947989597938,39.35756651330284,39.365653130626306,39.37373974794977,39.381826365273234,39.3899129825967,39.39799959992016,39.406086217243626,39.41417283456709,39.42225945189056,39.430346069214025,39.43843268653749,39.44651930386095,39.45460592118442,39.46269253850788,39.470779155831345,39.47886577315481,39.48695239047827,39.49503900780174,39.50312562512521,39.51121224244867,39.519298859772135,39.5273854770956,39.53547209441906,39.54355871174253,39.55164532906599,39.559731946389455,39.567818563712926,39.57590518103639,39.583991798359854,39.59207841568332,39.60016503300678,39.608251650330246,39.61633826765371,39.624424884977174,39.63251150230064,39.64059811962411,39.64868473694757,39.65677135427104,39.6648579715945,39.672944588917964,39.68103120624143,39.68911782356489,39.697204440888356,39.70529105821182,39.71337767553529,39.721464292858755,39.72955091018222,39.73763752750568,39.74572414482915,39.75381076215261,39.761897379476075,39.76998399679954,39.778070614123,39.786157231446474,39.79424384876994,39.8023304660934,39.810417083416866,39.81850370074033,39.82659031806379,39.83467693538726,39.84276355271072,39.850850170034185,39.858936787357656,39.86702340468112,39.875110022004584,39.88319663932805,39.89128325665151,39.899369873974976,39.90745649129844,39.915543108621904,39.92362972594537,39.93171634326884,39.9398029605923,39.94788957791577,39.95597619523923,39.964062812562695,39.97214942988616,39.98023604720962,39.98832266453309,39.99640928185655,40.00449589918002,40.012582516503485,40.02066913382695,40.02875575115041,40.03684236847388,40.04492898579734,40.053015603120805,40.06110222044427,40.06918883776773,40.077275455091204,40.08536207241467,40.09344868973813,40.101535307061596,40.10962192438506,40.117708541708524,40.12579515903199,40.13388177635545,40.141968393678916,40.15005501100239,40.15814162832585,40.166228245649314,40.17431486297278,40.18240148029624,40.190488097619706,40.19857471494317,40.206661332266634,40.2147479495901,40.22283456691357,40.23092118423703,40.2390078015605,40.24709441888396,40.255181036207425,40.26326765353089,40.27135427085435,40.27944088817782,40.28752750550128,40.29561412282475,40.303700740148216,40.31178735747168,40.319873974795144,40.32796059211861,40.33604720944207,40.344133826765535,40.352220444089,40.36030706141246,40.368393678735934,40.3764802960594,40.38456691338286,40.392653530706326,40.40074014802979,40.408826765353254,40.41691338267672,40.42500000000018
