0,1,2,3,4,5,6,7,8,9,10,11,12,13,14,15,16,17,18,19,20,21,22,23,24,25,26,27,28,29,30,31,32,33,34,35,36,37,38,39,40,41,42,43,44,45,46,47,48,49,50,51,52,53,54,55,56,57,58,59,60,61,62,63,64,65,66,67,68,69,70,71,72,73,74,75,76,77,78,79,80,81,82,83,84,85,86,87,88,89,90,91,92,93,94,95,96,97,98,99,100,101,102,103,104,105,106,107,108,109,110,111,112,113,114,115,116,117,118,119,120,121,122,123,124,125,126,127,128,129,130,131,132,133,134,135,136,137,138,139,140,141,142,143,144,145,146,147,148,149,150,151,152,153,154,155,156,157,158,159,160,161,162,163,164,165,166,167,168,169,170,171,172,173,174,175,176,177,178,179,180,181,182,183,184,185,186,187,188,189,190,191,192,193,194,195,196,197,198,199,200,201,202,203,204,205,206,207,208,209,210,211,212,213,214,215,216,217,218,219,220,221,222,223,224,225,226,227,228,229,230,231,232,233,234,235,236,237,238,239,240,241,242,243,244,245,246,247,248,249,250,251,252,253,254,255,256,257,258,259,260,261,262,263,264,265,266,267,268,269,270,271,272,273,274,275,276,277,278,279,280,281,282,283,284,285,286,287,288,289,290,291,292,293,294,295,296,297,298,299,300,301,302,303,304,305,306,307,308,309,310,311,312,313,314,315,316,317,318,319,320,321,322,323,324,325,326,327,328,329,330,331,332,333,334,335,336,337,338,339,340,341,342,343,344,345,346,347,348,349,350,351,352,353,354,355,356,357,358,359,360,361,362,363,364,365,366,367,368,369,370,371,372,373,374,375,376,377,378,379,380,381,382,383,384,385,386,387,388,389,390,391,392,393,394,395,396,397,398,399,400,401,402,403,404,405,406,407,408,409,410,411,412,413,414,415,416,417,418,419,420,421,422,423,424,425,426,427,428,429,430,431,432,433,434,435,436,437,438,439,440,441,442,443,444,445,446,447,448,449,450,451,452,453,454,455,456,457,458,459,460,461,462,463,464,465,466,467,468,469,470,471,472,473,474,475,476,477,478,479,480,481,482,483,484,485,486,487,488,489,490,491,492,493,494,495,496,497,498,499,500,501,502,503,504,505,506,507,508,509,510,511,512,513,514,515,516,517,518,519,520,521,522,523,524,525,526,527,528,529,530,531,532,533,534,535,536,537,538,539,540,541,542,543,544,545,546,547,548,549,550,551,552,553,554,555,556,557,558,559,560,561,562,563,564,565,566,567,568,569,570,571,572,573,574,575,576,577,578,579,580,581,582,583,584,585,586,587,588,589,590,591,592,593,594,595,596,597,598,599,600,601,602,603,604,605,606,607,608,609,610,611,612,613,614,615,616,617,618,619,620,621,622,623,624,625,626,627,628,629,630,631,632,633,634,635,636,637,638,639,640,641,642,643,644,645,646,647,648,649,650,651,652,653,654,655,656,657,658,659,660,661,662,663,664,665,666,667,668,669,670,671,672,673,674,675,676,677,678,679,680,681,682,683,684,685,686,687,688,689,690,691,692,693,694,695,696,697,698,699,700,701,702,703,704,705,706,707,708,709,710,711,712,713,714,715,716,717,718,719,720,721,722,723,724,725,726,727,728,729,730,731,732,733,734,735,736,737,738,739,740,741,742,743,744,745,746,747,748,749,750,751,752,753,754,755,756,757,758,759,760,761,762,763,764,765,766,767,768,769,770,771,772,773,774,775,776,777,778,779,780,781,782,783,784,785,786,787,788,789,790,791,792,793,794,795,796,797,798,799,800,801,802,803,804,805,806,807,808,809,810,811,812,813,814,815,816,817,818,819,820,821,822,823,824,825,826,827,828,829,830,831,832,833,834,835,836,837,838,839,840,841,842,843,844,845,846,847,848,849,850,851,852,853,854,855,856,857,858,859,860,861,862,863,864,865,866,867,868,869,870,871,872,873,874,875,876,877,878,879,880,881,882,883,884,885,886,887,888,889,890,891,892,893,894,895,896,897,898,899,900,901,902,903,904,905,906,907,908,909,910,911,912,913,914,915,916,917,918,919,920,921,922,923,924,925,926,927,928,929,930,931,932,933,934,935,936,937,938,939,940,941,942,943,944,945,946,947,948,949,950,951,952,953,954,955,956,957,958,959,960,961,962,963,964,965,966,967,968,969,970,971,972,973,974,975,976,977,978,979,980,981,982,983,984,985,986,987,988,989,990,991,992,993,994,995,996,997,998,999,1000,1001,1002,1003,1004,1005,1006,1007,1008,1009,1010,1011,1012,1013,1014,1015,1016,1017,1018,1019,1020,1021,1022,1023,1024,1025,1026,1027,1028,1029,1030,1031,1032,1033,1034,1035,1036,1037,1038,1039,1040,1041,1042,1043,1044,1045,1046,1047,1048,1049,1050,1051,1052,1053,1054,1055,1056,1057,1058,1059,1060,1061,1062,1063,1064,1065,1066,1067,1068,1069,1070,1071,1072,1073,1074,1075,1076,1077,1078,1079,1080,1081,1082,1083,1084,1085,1086,1087,1088,1089,1090,1091,1092,1093,1094,1095,1096,1097,1098,1099,1100,1101,1102,1103,1104,1105,1106,1107,1108,1109,1110,1111,1112,1113,1114,1115,1116,1117,1118,1119,1120,1121,1122,1123,1124,1125,1126,1127,1128,1129,1130,1131,1132,1133,1134,1135,1136,1137,1138,1139,1140,1141,1142,1143,1144,1145,1146,1147,1148,1149,1150,1151,1152,1153,1154,1155,1156,1157,1158,1159,1160,1161,1162,1163,1164,1165,1166,1167,1168,1169,1170,1171,1172,1173,1174,1175,1176,1177,1178,1179,1180,1181,1182,1183,1184,1185,1186,1187,1188,1189,1190,1191,1192,1193,1194,1195,1196,1197,1198,1199,1200,1201,1202,1203,1204,1205,1206,1207,1208,1209,1210,1211,1212,1213,1214,1215,1216,1217,1218,1219,1220,1221,1222,1223,1224,1225,1226,1227,1228,1229,1230,1231,1232,1233,1234,1235,1236,1237,1238,1239,1240,1241,1242,1243,1244,1245,1246,1247,1248,1249,1250,1251,1252,1253,1254,1255,1256,1257,1258,1259,1260,1261,1262,1263,1264,1265,1266,1267,1268,1269,1270,1271,1272,1273,1274,1275,1276,1277,1278,1279,1280,1281,1282,1283,1284,1285,1286,1287,1288,1289,1290,1291,1292,1293,1294,1295,1296,1297,1298,1299,1300,1301,1302,1303,1304,1305,1306,1307,1308,1309,1310,1311,1312,1313,1314,1315,1316,1317,1318,1319,1320,1321,1322,1323,1324,1325,1326,1327,1328,1329,1330,1331,1332,1333,1334,1335,1336,1337,1338,1339,1340,1341,1342,1343,1344,1345,1346,1347,1348,1349,1350,1351,1352,1353,1354,1355,1356,1357,1358,1359,1360,1361,1362,1363,1364,1365,1366,1367,1368,1369,1370,1371,1372,1373,1374,1375,1376,1377,1378,1379,1380,1381,1382,1383,1384,1385,1386,1387,1388,1389,1390,1391,1392,1393,1394,1395,1396,1397,1398,1399,1400,1401,1402,1403,1404,1405,1406,1407,1408,1409,1410,1411,1412,1413,1414,1415,1416,1417,1418,1419,1420,1421,1422,1423,1424,1425,1426,1427,1428,1429,1430,1431,1432,1433,1434,1435,1436,1437,1438,1439,1440,1441,1442,1443,1444,1445,1446,1447,1448,1449,1450,1451,1452,1453,1454,1455,1456,1457,1458,1459,1460,1461,1462,1463,1464,1465,1466,1467,1468,1469,1470,1471,1472,1473,1474,1475,1476,1477,1478,1479,1480,1481,1482,1483,1484,1485,1486,1487,1488,1489,1490,1491,1492,1493,1494,1495,1496,1497,1498,1499,1500,1501,1502,1503,1504,1505,1506,1507,1508,1509,1510,1511,1512,1513,1514,1515,1516,1517,1518,1519,1520,1521,1522,1523,1524,1525,1526,1527,1528,1529,1530,1531,1532,1533,1534,1535,1536,1537,1538,1539,1540,1541,1542,1543,1544,1545,1546,1547,1548,1549,1550,1551,1552,1553,1554,1555,1556,1557,1558,1559,1560,1561,1562,1563,1564,1565,1566,1567,1568,1569,1570,1571,1572,1573,1574,1575,1576,1577,1578,1579,1580,1581,1582,1583,1584,1585,1586,1587,1588,1589,1590,1591,1592,1593,1594,1595,1596,1597,1598,1599,1600,1601,1602,1603,1604,1605,1606,1607,1608,1609,1610,1611,1612,1613,1614,1615,1616,1617,1618,1619,1620,1621,1622,1623,1624,1625,1626,1627,1628,1629,1630,1631,1632,1633,1634,1635,1636,1637,1638,1639,1640,1641,1642,1643,1644,1645,1646,1647,1648,1649,1650,1651,1652,1653,1654,1655,1656,1657,1658,1659,1660,1661,1662,1663,1664,1665,1666,1667,1668,1669,1670,1671,1672,1673,1674,1675,1676,1677,1678,1679,1680,1681,1682,1683,1684,1685,1686,1687,1688,1689,1690,1691,1692,1693,1694,1695,1696,1697,1698,1699,1700,1701,1702,1703,1704,1705,1706,1707,1708,1709,1710,1711,1712,1713,1714,1715,1716,1717,1718,1719,1720,1721,1722,1723,1724,1725,1726,1727,1728,1729,1730,1731,1732,1733,1734,1735,1736,1737,1738,1739,1740,1741,1742,1743,1744,1745,1746,1747,1748,1749,1750,1751,1752,1753,1754,1755,1756,1757,1758,1759,1760,1761,1762,1763,1764,1765,1766,1767,1768,1769,1770,1771,1772,1773,1774,1775,1776,1777,1778,1779,1780,1781,1782,1783,1784,1785,1786,1787,1788,1789,1790,1791,1792,1793,1794,1795,1796,1797,1798,1799,1800,1801,1802,1803,1804,1805,1806,1807,1808,1809,1810,1811,1812,1813,1814,1815,1816,1817,1818,1819,1820,1821,1822,1823,1824,1825,1826,1827,1828,1829,1830,1831,1832,1833,1834,1835,1836,1837,1838,1839,1840,1841,1842,1843,1844,1845,1846,1847,1848,1849,1850,1851,1852,1853,1854,1855,1856,1857,1858,1859,1860,1861,1862,1863,1864,1865,1866,1867,1868,1869,1870,1871,1872,1873,1874,1875,1876,1877,1878,1879,1880,1881,1882,1883,1884,1885,1886,1887,1888,1889,1890,1891,1892,1893,1894,1895,1896,1897,1898,1899,1900,1901,1902,1903,1904,1905,1906,1907,1908,1909,1910,1911,1912,1913,1914,1915,1916,1917,1918,1919,1920,1921,1922,1923,1924,1925,1926,1927,1928,1929,1930,1931,1932,1933,1934,1935,1936,1937,1938,1939,1940,1941,1942,1943,1944,1945,1946,1947,1948,1949,1950,1951,1952,1953,1954,1955,1956,1957,1958,1959,1960,1961,1962,1963,1964,1965,1966,1967,1968,1969,1970,1971,1972,1973,1974,1975,1976,1977,1978,1979,1980,1981,1982,1983,1984,1985,1986,1987,1988,1989,1990,1991,1992,1993,1994,1995,1996,1997,1998,1999,2000,2001,2002,2003,2004,2005,2006,2007,2008,2009,2010,2011,2012,2013,2014,2015,2016,2017,2018,2019,2020,2021,2022,2023,2024,2025,2026,2027,2028,2029,2030,2031,2032,2033,2034,2035,2036,2037,2038,2039,2040,2041,2042,2043,2044,2045,2046,2047,2048,2049,2050,2051,2052,2053,2054,2055,2056,2057,2058,2059,2060,2061,2062,2063,2064,2065,2066,2067,2068,2069,2070,2071,2072,2073,2074,2075,2076,2077,2078,2079,2080,2081,2082,2083,2084,2085,2086,2087,2088,2089,2090,2091,2092,2093,2094,2095,2096,2097,2098,2099,2100,2101,2102,2103,2104,2105,2106,2107,2108,2109,2110,2111,2112,2113,2114,2115,2116,2117,2118,2119,2120,2121,2122,2123,2124,2125,2126,2127,2128,2129,2130,2131,2132,2133,2134,2135,2136,2137,2138,2139,2140,2141,2142,2143,2144,2145,2146,2147,2148,2149,2150,2151,2152,2153,2154,2155,2156,2157,2158,2159,2160,2161,2162,2163,2164,2165,2166,2167,2168,2169,2170,2171,2172,2173,2174,2175,2176,2177,2178,2179,2180,2181,2182,2183,2184,2185,2186,2187,2188,2189,2190,2191,2192,2193,2194,2195,2196,2197,2198,2199,2200,2201,2202,2203,2204,2205,2206,2207,2208,2209,2210,2211,2212,2213,2214,2215,2216,2217,2218,2219,2220,2221,2222,2223,2224,2225,2226,2227,2228,2229,2230,2231,2232,2233,2234,2235,2236,2237,2238,2239,2240,2241,2242,2243,2244,2245,2246,2247,2248,2249,2250,2251,2252,2253,2254,2255,2256,2257,2258,2259,2260,2261,2262,2263,2264,2265,2266,2267,2268,2269,2270,2271,2272,2273,2274,2275,2276,2277,2278,2279,2280,2281,2282,2283,2284,2285,2286,2287,2288,2289,2290,2291,2292,2293,2294,2295,2296,2297,2298,2299,2300,2301,2302,2303,2304,2305,2306,2307,2308,2309,2310,2311,2312,2313,2314,2315,2316,2317,2318,2319,2320,2321,2322,2323,2324,2325,2326,2327,2328,2329,2330,2331,2332,2333,2334,2335,2336,2337,2338,2339,2340,2341,2342,2343,2344,2345,2346,2347,2348,2349,2350,2351,2352,2353,2354,2355,2356,2357,2358,2359,2360,2361,2362,2363,2364,2365,2366,2367,2368,2369,2370,2371,2372,2373,2374,2375,2376,2377,2378,2379,2380,2381,2382,2383,2384,2385,2386,2387,2388,2389,2390,2391,2392,2393,2394,2395,2396,2397,2398,2399,2400,2401,2402,2403,2404,2405,2406,2407,2408,2409,2410,2411,2412,2413,2414,2415,2416,2417,2418,2419,2420,2421,2422,2423,2424,2425,2426,2427,2428,2429,2430,2431,2432,2433,2434,2435,2436,2437,2438,2439,2440,2441,2442,2443,2444,2445,2446,2447,2448,2449,2450,2451,2452,2453,2454,2455,2456,2457,2458,2459,2460,2461,2462,2463,2464,2465,2466,2467,2468,2469,2470,2471,2472,2473,2474,2475,2476,2477,2478,2479,2480,2481,2482,2483,2484,2485,2486,2487,2488,2489,2490,2491,2492,2493,2494,2495,2496,2497,2498,2499,2500,2501,2502,2503,2504,2505,2506,2507,2508,2509,2510,2511,2512,2513,2514,2515,2516,2517,2518,2519,2520,2521,2522,2523,2524,2525,2526,2527,2528,2529,2530,2531,2532,2533,2534,2535,2536,2537,2538,2539,2540,2541,2542,2543,2544,2545,2546,2547,2548,2549,2550,2551,2552,2553,2554,2555,2556,2557,2558,2559,2560,2561,2562,2563,2564,2565,2566,2567,2568,2569,2570,2571,2572,2573,2574,2575,2576,2577,2578,2579,2580,2581,2582,2583,2584,2585,2586,2587,2588,2589,2590,2591,2592,2593,2594,2595,2596,2597,2598,2599,2600,2601,2602,2603,2604,2605,2606,2607,2608,2609,2610,2611,2612,2613,2614,2615,2616,2617,2618,2619,2620,2621,2622,2623,2624,2625,2626,2627,2628,2629,2630,2631,2632,2633,2634,2635,2636,2637,2638,2639,2640,2641,2642,2643,2644,2645,2646,2647,2648,2649,2650,2651,2652,2653,2654,2655,2656,2657,2658,2659,2660,2661,2662,2663,2664,2665,2666,2667,2668,2669,2670,2671,2672,2673,2674,2675,2676,2677,2678,2679,2680,2681,2682,2683,2684,2685,2686,2687,2688,2689,2690,2691,2692,2693,2694,2695,2696,2697,2698,2699,2700,2701,2702,2703,2704,2705,2706,2707,2708,2709,2710,2711,2712,2713,2714,2715,2716,2717,2718,2719,2720,2721,2722,2723,2724,2725,2726,2727,2728,2729,2730,2731,2732,2733,2734,2735,2736,2737,2738,2739,2740,2741,2742,2743,2744,2745,2746,2747,2748,2749,2750,2751,2752,2753,2754,2755,2756,2757,2758,2759,2760,2761,2762,2763,2764,2765,2766,2767,2768,2769,2770,2771,2772,2773,2774,2775,2776,2777,2778,2779,2780,2781,2782,2783,2784,2785,2786,2787,2788,2789,2790,2791,2792,2793,2794,2795,2796,2797,2798,2799,2800,2801,2802,2803,2804,2805,2806,2807,2808,2809,2810,2811,2812,2813,2814,2815,2816,2817,2818,2819,2820,2821,2822,2823,2824,2825,2826,2827,2828,2829,2830,2831,2832,2833,2834,2835,2836,2837,2838,2839,2840,2841,2842,2843,2844,2845,2846,2847,2848,2849,2850,2851,2852,2853,2854,2855,2856,2857,2858,2859,2860,2861,2862,2863,2864,2865,2866,2867,2868,2869,2870,2871,2872,2873,2874,2875,2876,2877,2878,2879,2880,2881,2882,2883,2884,2885,2886,2887,2888,2889,2890,2891,2892,2893,2894,2895,2896,2897,2898,2899,2900,2901,2902,2903,2904,2905,2906,2907,2908,2909,2910,2911,2912,2913,2914,2915,2916,2917,2918,2919,2920,2921,2922,2923,2924,2925,2926,2927,2928,2929,2930,2931,2932,2933,2934,2935,2936,2937,2938,2939,2940,2941,2942,2943,2944,2945,2946,2947,2948,2949,2950,2951,2952,2953,2954,2955,2956,2957,2958,2959,2960,2961,2962,2963,2964,2965,2966,2967,2968,2969,2970,2971,2972,2973,2974,2975,2976,2977,2978,2979,2980,2981,2982,2983,2984,2985,2986,2987,2988,2989,2990,2991,2992,2993,2994,2995,2996,2997,2998,2999,3000,3001,3002,3003,3004,3005,3006,3007,3008,3009,3010,3011,3012,3013,3014,3015,3016,3017,3018,3019,3020,3021,3022,3023,3024,3025,3026,3027,3028,3029,3030,3031,3032,3033,3034,3035,3036,3037,3038,3039,3040,3041,3042,3043,3044,3045,3046,3047,3048,3049,3050,3051,3052,3053,3054,3055,3056,3057,3058,3059,3060,3061,3062,3063,3064,3065,3066,3067,3068,3069,3070,3071,3072,3073,3074,3075,3076,3077,3078,3079,3080,3081,3082,3083,3084,3085,3086,3087,3088,3089,3090,3091,3092,3093,3094,3095,3096,3097,3098,3099,3100,3101,3102,3103,3104,3105,3106,3107,3108,3109,3110,3111,3112,3113,3114,3115,3116,3117,3118,3119,3120,3121,3122,3123,3124,3125,3126,3127,3128,3129,3130,3131,3132,3133,3134,3135,3136,3137,3138,3139,3140,3141,3142,3143,3144,3145,3146,3147,3148,3149,3150,3151,3152,3153,3154,3155,3156,3157,3158,3159,3160,3161,3162,3163,3164,3165,3166,3167,3168,3169,3170,3171,3172,3173,3174,3175,3176,3177,3178,3179,3180,3181,3182,3183,3184,3185,3186,3187,3188,3189,3190,3191,3192,3193,3194,3195,3196,3197,3198,3199,3200,3201,3202,3203,3204,3205,3206,3207,3208,3209,3210,3211,3212,3213,3214,3215,3216,3217,3218,3219,3220,3221,3222,3223,3224,3225,3226,3227,3228,3229,3230,3231,3232,3233,3234,3235,3236,3237,3238,3239,3240,3241,3242,3243,3244,3245,3246,3247,3248,3249,3250,3251,3252,3253,3254,3255,3256,3257,3258,3259,3260,3261,3262,3263,3264,3265,3266,3267,3268,3269,3270,3271,3272,3273,3274,3275,3276,3277,3278,3279,3280,3281,3282,3283,3284,3285,3286,3287,3288,3289,3290,3291,3292,3293,3294,3295,3296,3297,3298,3299,3300,3301,3302,3303,3304,3305,3306,3307,3308,3309,3310,3311,3312,3313,3314,3315,3316,3317,3318,3319,3320,3321,3322,3323,3324,3325,3326,3327,3328,3329,3330,3331,3332,3333,3334,3335,3336,3337,3338,3339,3340,3341,3342,3343,3344,3345,3346,3347,3348,3349,3350,3351,3352,3353,3354,3355,3356,3357,3358,3359,3360,3361,3362,3363,3364,3365,3366,3367,3368,3369,3370,3371,3372,3373,3374,3375,3376,3377,3378,3379,3380,3381,3382,3383,3384,3385,3386,3387,3388,3389,3390,3391,3392,3393,3394,3395,3396,3397,3398,3399,3400,3401,3402,3403,3404,3405,3406,3407,3408,3409,3410,3411,3412,3413,3414,3415,3416,3417,3418,3419,3420,3421,3422,3423,3424,3425,3426,3427,3428,3429,3430,3431,3432,3433,3434,3435,3436,3437,3438,3439,3440,3441,3442,3443,3444,3445,3446,3447,3448,3449,3450,3451,3452,3453,3454,3455,3456,3457,3458,3459,3460,3461,3462,3463,3464,3465,3466,3467,3468,3469,3470,3471,3472,3473,3474,3475,3476,3477,3478,3479,3480,3481,3482,3483,3484,3485,3486,3487,3488,3489,3490,3491,3492,3493,3494,3495,3496,3497,3498,3499,3500,3501,3502,3503,3504,3505,3506,3507,3508,3509,3510,3511,3512,3513,3514,3515,3516,3517,3518,3519,3520,3521,3522,3523,3524,3525,3526,3527,3528,3529,3530,3531,3532,3533,3534,3535,3536,3537,3538,3539,3540,3541,3542,3543,3544,3545,3546,3547,3548,3549,3550,3551,3552,3553,3554,3555,3556,3557,3558,3559,3560,3561,3562,3563,3564,3565,3566,3567,3568,3569,3570,3571,3572,3573,3574,3575,3576,3577,3578,3579,3580,3581,3582,3583,3584,3585,3586,3587,3588,3589,3590,3591,3592,3593,3594,3595,3596,3597,3598,3599,3600,3601,3602,3603,3604,3605,3606,3607,3608,3609,3610,3611,3612,3613,3614,3615,3616,3617,3618,3619,3620,3621,3622,3623,3624,3625,3626,3627,3628,3629,3630,3631,3632,3633,3634,3635,3636,3637,3638,3639,3640,3641,3642,3643,3644,3645,3646,3647,3648,3649,3650,3651,3652,3653,3654,3655,3656,3657,3658,3659,3660,3661,3662,3663,3664,3665,3666,3667,3668,3669,3670,3671,3672,3673,3674,3675,3676,3677,3678,3679,3680,3681,3682,3683,3684,3685,3686,3687,3688,3689,3690,3691,3692,3693,3694,3695,3696,3697,3698,3699,3700,3701,3702,3703,3704,3705,3706,3707,3708,3709,3710,3711,3712,3713,3714,3715,3716,3717,3718,3719,3720,3721,3722,3723,3724,3725,3726,3727,3728,3729,3730,3731,3732,3733,3734,3735,3736,3737,3738,3739,3740,3741,3742,3743,3744,3745,3746,3747,3748,3749,3750,3751,3752,3753,3754,3755,3756,3757,3758,3759,3760,3761,3762,3763,3764,3765,3766,3767,3768,3769,3770,3771,3772,3773,3774,3775,3776,3777,3778,3779,3780,3781,3782,3783,3784,3785,3786,3787,3788,3789,3790,3791,3792,3793,3794,3795,3796,3797,3798,3799,3800,3801,3802,3803,3804,3805,3806,3807,3808,3809,3810,3811,3812,3813,3814,3815,3816,3817,3818,3819,3820,3821,3822,3823,3824,3825,3826,3827,3828,3829,3830,3831,3832,3833,3834,3835,3836,3837,3838,3839,3840,3841,3842,3843,3844,3845,3846,3847,3848,3849,3850,3851,3852,3853,3854,3855,3856,3857,3858,3859,3860,3861,3862,3863,3864,3865,3866,3867,3868,3869,3870,3871,3872,3873,3874,3875,3876,3877,3878,3879,3880,3881,3882,3883,3884,3885,3886,3887,3888,3889,3890,3891,3892,3893,3894,3895,3896,3897,3898,3899,3900,3901,3902,3903,3904,3905,3906,3907,3908,3909,3910,3911,3912,3913,3914,3915,3916,3917,3918,3919,3920,3921,3922,3923,3924,3925,3926,3927,3928,3929,3930,3931,3932,3933,3934,3935,3936,3937,3938,3939,3940,3941,3942,3943,3944,3945,3946,3947,3948,3949,3950,3951,3952,3953,3954,3955,3956,3957,3958,3959,3960,3961,3962,3963,3964,3965,3966,3967,3968,3969,3970,3971,3972,3973,3974,3975,3976,3977,3978,3979,3980,3981,3982,3983,3984,3985,3986,3987,3988,3989,3990,3991,3992,3993,3994,3995,3996,3997,3998,3999,4000,4001,4002,4003,4004,4005,4006,4007,4008,4009,4010,4011,4012,4013,4014,4015,4016,4017,4018,4019,4020,4021,4022,4023,4024,4025,4026,4027,4028,4029,4030,4031,4032,4033,4034,4035,4036,4037,4038,4039,4040,4041,4042,4043,4044,4045,4046,4047,4048,4049,4050,4051,4052,4053,4054,4055,4056,4057,4058,4059,4060,4061,4062,4063,4064,4065,4066,4067,4068,4069,4070,4071,4072,4073,4074,4075,4076,4077,4078,4079,4080,4081,4082,4083,4084,4085,4086,4087,4088,4089,4090,4091,4092,4093,4094,4095,4096,4097,4098,4099,4100,4101,4102,4103,4104,4105,4106,4107,4108,4109,4110,4111,4112,4113,4114,4115,4116,4117,4118,4119,4120,4121,4122,4123,4124,4125,4126,4127,4128,4129,4130,4131,4132,4133,4134,4135,4136,4137,4138,4139,4140,4141,4142,4143,4144,4145,4146,4147,4148,4149,4150,4151,4152,4153,4154,4155,4156,4157,4158,4159,4160,4161,4162,4163,4164,4165,4166,4167,4168,4169,4170,4171,4172,4173,4174,4175,4176,4177,4178,4179,4180,4181,4182,4183,4184,4185,4186,4187,4188,4189,4190,4191,4192,4193,4194,4195,4196,4197,4198,4199,4200,4201,4202,4203,4204,4205,4206,4207,4208,4209,4210,4211,4212,4213,4214,4215,4216,4217,4218,4219,4220,4221,4222,4223,4224,4225,4226,4227,4228,4229,4230,4231,4232,4233,4234,4235,4236,4237,4238,4239,4240,4241,4242,4243,4244,4245,4246,4247,4248,4249,4250,4251,4252,4253,4254,4255,4256,4257,4258,4259,4260,4261,4262,4263,4264,4265,4266,4267,4268,4269,4270,4271,4272,4273,4274,4275,4276,4277,4278,4279,4280,4281,4282,4283,4284,4285,4286,4287,4288,4289,4290,4291,4292,4293,4294,4295,4296,4297,4298,4299,4300,4301,4302,4303,4304,4305,4306,4307,4308,4309,4310,4311,4312,4313,4314,4315,4316,4317,4318,4319,4320,4321,4322,4323,4324,4325,4326,4327,4328,4329,4330,4331,4332,4333,4334,4335,4336,4337,4338,4339,4340,4341,4342,4343,4344,4345,4346,4347,4348,4349,4350,4351,4352,4353,4354,4355,4356,4357,4358,4359,4360,4361,4362,4363,4364,4365,4366,4367,4368,4369,4370,4371,4372,4373,4374,4375,4376,4377,4378,4379,4380,4381,4382,4383,4384,4385,4386,4387,4388,4389,4390,4391,4392,4393,4394,4395,4396,4397,4398,4399,4400,4401,4402,4403,4404,4405,4406,4407,4408,4409,4410,4411,4412,4413,4414,4415,4416,4417,4418,4419,4420,4421,4422,4423,4424,4425,4426,4427,4428,4429,4430,4431,4432,4433,4434,4435,4436,4437,4438,4439,4440,4441,4442,4443,4444,4445,4446,4447,4448,4449,4450,4451,4452,4453,4454,4455,4456,4457,4458,4459,4460,4461,4462,4463,4464,4465,4466,4467,4468,4469,4470,4471,4472,4473,4474,4475,4476,4477,4478,4479,4480,4481,4482,4483,4484,4485,4486,4487,4488,4489,4490,4491,4492,4493,4494,4495,4496,4497,4498,4499,4500,4501,4502,4503,4504,4505,4506,4507,4508,4509,4510,4511,4512,4513,4514,4515,4516,4517,4518,4519,4520,4521,4522,4523,4524,4525,4526,4527,4528,4529,4530,4531,4532,4533,4534,4535,4536,4537,4538,4539,4540,4541,4542,4543,4544,4545,4546,4547,4548,4549,4550,4551,4552,4553,4554,4555,4556,4557,4558,4559,4560,4561,4562,4563,4564,4565,4566,4567,4568,4569,4570,4571,4572,4573,4574,4575,4576,4577,4578,4579,4580,4581,4582,4583,4584,4585,4586,4587,4588,4589,4590,4591,4592,4593,4594,4595,4596,4597,4598,4599,4600,4601,4602,4603,4604,4605,4606,4607,4608,4609,4610,4611,4612,4613,4614,4615,4616,4617,4618,4619,4620,4621,4622,4623,4624,4625,4626,4627,4628,4629,4630,4631,4632,4633,4634,4635,4636,4637,4638,4639,4640,4641,4642,4643,4644,4645,4646,4647,4648,4649,4650,4651,4652,4653,4654,4655,4656,4657,4658,4659,4660,4661,4662,4663,4664,4665,4666,4667,4668,4669,4670,4671,4672,4673,4674,4675,4676,4677,4678,4679,4680,4681,4682,4683,4684,4685,4686,4687,4688,4689,4690,4691,4692,4693,4694,4695,4696,4697,4698,4699,4700,4701,4702,4703,4704,4705,4706,4707,4708,4709,4710,4711,4712,4713,4714,4715,4716,4717,4718,4719,4720,4721,4722,4723,4724,4725,4726,4727,4728,4729,4730,4731,4732,4733,4734,4735,4736,4737,4738,4739,4740,4741,4742,4743,4744,4745,4746,4747,4748,4749,4750,4751,4752,4753,4754,4755,4756,4757,4758,4759,4760,4761,4762,4763,4764,4765,4766,4767,4768,4769,4770,4771,4772,4773,4774,4775,4776,4777,4778,4779,4780,4781,4782,4783,4784,4785,4786,4787,4788,4789,4790,4791,4792,4793,4794,4795,4796,4797,4798,4799,4800,4801,4802,4803,4804,4805,4806,4807,4808,4809,4810,4811,4812,4813,4814,4815,4816,4817,4818,4819,4820,4821,4822,4823,4824,4825,4826,4827,4828,4829,4830,4831,4832,4833,4834,4835,4836,4837,4838,4839,4840,4841,4842,4843,4844,4845,4846,4847,4848,4849,4850,4851,4852,4853,4854,4855,4856,4857,4858,4859,4860,4861,4862,4863,4864,4865,4866,4867,4868,4869,4870,4871,4872,4873,4874,4875,4876,4877,4878,4879,4880,4881,4882,4883,4884,4885,4886,4887,4888,4889,4890,4891,4892,4893,4894,4895,4896,4897,4898,4899,4900,4901,4902,4903,4904,4905,4906,4907,4908,4909,4910,4911,4912,4913,4914,4915,4916,4917,4918,4919,4920,4921,4922,4923,4924,4925,4926,4927,4928,4929,4930,4931,4932,4933,4934,4935,4936,4937,4938,4939,4940,4941,4942,4943,4944,4945,4946,4947,4948,4949,4950,4951,4952,4953,4954,4955,4956,4957,4958,4959,4960,4961,4962,4963,4964,4965,4966,4967,4968,4969,4970,4971,4972,4973,4974,4975,4976,4977,4978,4979,4980,4981,4982,4983,4984,4985,4986,4987,4988,4989,4990,4991,4992,4993,4994,4995,4996,4997,4998,4999
423.275,423.281,423.283,423.285,423.289,423.291,423.293,423.298,423.335,423.34,423.342,423.344,423.348,423.35,423.352,423.354,423.389,423.392,423.394,423.397,423.399,423.401,423.404,423.406,423.447,423.449,423.451,423.454,423.456,423.458,423.461,423.463,423.502,423.504,423.506,423.509,423.511,423.513,423.518,423.52,423.558,423.56,423.562,423.567,423.569,423.571,423.576,423.578,423.619,423.621,423.623,423.627,423.629,423.631,423.634,423.636,423.675,423.677,423.679,423.682,423.684,423.686,423.69,423.692,423.729,423.731,423.733,423.736,423.738,423.74,423.744,423.746,423.783,423.785,423.787,423.792,423.794,423.796,423.8,423.802,423.844,423.846,423.848,423.851,423.853,423.855,423.859,423.861,423.9,423.902,423.904,423.91,423.912,423.914,423.917,423.919,423.955,423.957,423.959,423.962,423.964,423.966,423.968,423.97,424.007,424.009,424.011,424.017,424.019,424.021,424.024,424.026,424.066,424.068,424.07,424.075,424.077,424.079,424.083,424.085,424.122,424.125,424.127,424.13,424.132,424.134,424.138,424.14,424.178,424.18,424.182,424.186,424.188,424.19,424.195,424.197,424.236,424.238,424.24,424.243,424.245,424.247,424.253,424.255,424.293,424.295,424.297,424.299,424.302,424.305,424.307,424.309,424.35,424.355,424.357,424.359,424.362,424.364,424.366,424.37,424.407,424.413,424.415,424.417,424.421,424.423,424.425,424.429,424.467,424.472,424.474,424.476,424.478,424.481,424.483,424.485,424.523,424.526,424.528,424.53,424.533,424.535,424.537,424.542,424.58,424.586,424.588,424.59,424.593,424.595,424.597,424.602,424.637,424.639,424.642,424.644,424.647,424.649,424.651,424.655,424.692,424.698,424.7,424.702,424.706,424.708,424.71,424.714,424.752,424.757,424.759,424.761,424.767,424.769,424.771,424.774,424.811,424.816,424.818,424.82,424.825,424.827,424.829,424.833,424.87,424.872,424.874,424.876,424.879,424.881,424.883,424.887,424.923,424.928,424.93,424.932,424.935,424.937,424.939,424.943,424.978,424.984,424.986,424.988,424.991,424.993,424.995,424.999,425.036,425.039,425.041,425.043,425.049,425.051,425.053,425.056,425.093,425.099,425.101,425.103,425.106,425.108,425.11,425.113,425.15,425.155,425.157,425.159,425.163,425.165,425.167,425.172,425.208,425.214,425.216,425.218,425.221,425.223,425.225,425.229,425.264,425.269,425.271,425.273,425.277,425.279,425.281,425.285,425.323,425.328,425.33,425.332,425.337,425.339,425.341,425.345,425.384,425.387,425.389,425.391,425.393,425.395,425.397,425.401,425.436,425.442,425.444,425.446,425.449,425.451,425.453,425.457,425.493,425.496,425.498,425.5,425.503,425.505,425.507,425.511,425.548,425.553,425.555,425.557,425.562,425.564,425.566,425.571,425.607,425.613,425.615,425.617,425.621,425.623,425.625,425.629,425.668,425.672,425.674,425.676,425.682,425.684,425.686,425.689,425.726,425.728,425.73,425.732,425.735,425.737,425.739,425.743,425.78,425.785,425.787,425.789,425.793,425.795,425.797,425.802,425.835,425.837,425.84,425.842,425.847,425.849,425.851,425.854,425.892,425.895,425.897,425.899,425.904,425.906,425.908,425.911,425.948,425.951,425.953,425.955,425.958,425.96,425.962,425.967,426.002,426.008,426.01,426.012,426.015,426.017,426.019,426.024,426.061,426.066,426.068,426.07,426.073,426.075,426.077,426.081,426.119,426.124,426.126,426.128,426.133,426.135,426.137,426.141,426.178,426.183,426.185,426.187,426.193,426.195,426.197,426.201,426.238,426.244,426.246,426.248,426.251,426.253,426.255,426.259,426.297,426.303,426.305,426.307,426.313,426.315,426.317,426.32,426.357,426.359,426.362,426.364,426.369,426.371,426.373,426.376,426.412,426.418,426.42,426.422,426.425,426.427,426.429,426.432,426.468,426.474,426.476,426.478,426.481,426.483,426.485,426.489,426.524,426.53,426.532,426.534,426.537,426.539,426.541,426.546,426.584,426.59,426.592,426.594,426.597,426.599,426.601,426.604,426.642,426.647,426.649,426.651,426.657,426.659,426.661,426.664,426.703,426.708,426.71,426.712,426.718,426.72,426.722,426.725,426.762,426.764,426.767,426.769,426.772,426.774,426.776,426.78,426.816,426.822,426.824,426.826,426.829,426.831,426.833,426.836,426.873,426.875,426.878,426.88,426.883,426.885,426.887,426.891,426.928,426.932,426.934,426.936,426.939,426.941,426.943,426.947,426.985,426.987,426.989,426.991,426.994,426.996,426.998,427.002,427.04,427.045,427.047,427.049,427.053,427.055,427.057,427.063,427.097,427.099,427.101,427.104,427.107,427.109,427.111,427.115,427.154,427.16,427.162,427.164,427.167,427.169,427.171,427.175,427.213,427.219,427.221,427.223,427.226,427.228,427.23,427.234,427.271,427.275,427.277,427.279,427.285,427.287,427.289,427.292,427.331,427.333,427.335,427.337,427.34,427.342,427.344,427.348,427.385,427.39,427.392,427.394,427.397,427.399,427.401,427.406,427.442,427.447,427.449,427.451,427.455,427.457,427.459,427.463,427.497,427.5,427.502,427.504,427.507,427.509,427.511,427.514,427.551,427.553,427.556,427.558,427.561,427.563,427.565,427.569,427.606,427.611,427.613,427.615,427.619,427.621,427.623,427.629,427.664,427.668,427.67,427.672,427.674,427.677,427.679,427.681,427.718,427.721,427.723,427.725,427.728,427.73,427.732,427.734,427.769,427.774,427.776,427.778,427.781,427.783,427.785,427.789,427.826,427.831,427.833,427.835,427.839,427.841,427.843,427.847,427.882,427.888,427.89,427.892,427.895,427.897,427.899,427.903,427.94,427.943,427.945,427.947,427.95,427.952,427.954,427.958,427.995,428.0,428.002,428.004,428.008,428.01,428.012,428.016,428.053,428.059,428.061,428.063,428.066,428.068,428.07,428.075,428.113,428.119,428.121,428.123,428.126,428.128,428.13,428.134,428.17,428.172,428.174,428.176,428.179,428.181,428.183,428.186,428.225,428.228,428.23,428.232,428.236,428.238,428.24,428.244,428.28,428.286,428.288,428.29,428.293,428.295,428.297,428.301,428.338,428.344,428.346,428.348,428.351,428.353,428.355,428.359,428.396,428.4,428.402,428.404,428.408,428.41,428.412,428.415,428.451,428.456,428.458,428.46,428.464,428.466,428.468,428.471,428.51,428.516,428.518,428.52,428.523,428.525,428.527,428.532,428.568,428.572,428.574,428.576,428.58,428.582,428.584,428.588,428.622,428.624,428.627,428.629,428.632,428.634,428.636,428.64,428.676,428.681,428.683,428.685,428.689,428.691,428.693,428.697,428.735,428.741,428.743,428.745,428.748,428.75,428.752,428.757,428.791,428.797,428.799,428.801,428.804,428.806,428.808,428.813,428.849,428.855,428.857,428.859,428.863,428.865,428.867,428.871,428.907,428.913,428.915,428.917,428.919,428.921,428.923,428.927,428.966,428.969,428.971,428.973,428.977,428.979,428.981,428.984,429.02,429.023,429.025,429.027,429.03,429.032,429.034,429.038,429.073,429.079,429.081,429.083,429.086,429.088,429.09,429.094,429.131,429.133,429.135,429.137,429.14,429.142,429.144,429.148,429.185,429.188,429.19,429.192,429.196,429.198,429.2,429.204,429.238,429.242,429.244,429.246,429.249,429.251,429.253,429.257,429.292,429.298,429.3,429.302,429.305,429.307,429.309,429.312,429.351,429.354,429.356,429.358,429.361,429.363,429.365,429.371,429.405,429.411,429.413,429.415,429.418,429.42,429.422,429.426,429.463,429.465,429.468,429.47,429.474,429.476,429.478,429.482,429.518,429.524,429.526,429.528,429.531,429.533,429.535,429.539,429.576,429.579,429.581,429.583,429.586,429.588,429.59,429.594,429.629,429.635,429.637,429.639,429.642,429.644,429.646,429.65,429.688,429.693,429.695,429.697,429.703,429.705,429.707,429.71,429.748,429.75,429.752,429.754,429.757,429.759,429.761,429.765,429.801,429.806,429.808,429.81,429.814,429.816,429.818,429.822,429.86,429.863,429.865,429.867,429.871,429.873,429.875,429.879,429.914,429.916,429.919,429.921,429.924,429.926,429.928,429.931,429.966,429.972,429.974,429.976,429.979,429.981,429.983,429.987,430.025,430.031,430.033,430.035,430.038,430.04,430.042,430.048,430.083,430.089,430.091,430.093,430.096,430.098,430.1,430.104,430.139,430.141,430.143,430.146,430.149,430.151,430.153,430.156,430.192,430.194,430.197,430.199,430.202,430.204,430.206,430.208,430.243,430.245,430.247,430.25,430.255,430.257,430.259,430.262,430.299,430.303,430.305,430.307,430.311,430.313,430.315,430.321,430.356,430.362,430.364,430.366,430.369,430.371,430.373,430.376,430.413,430.415,430.418,430.42,430.423,430.425,430.427,430.431,430.468,430.473,430.475,430.477,430.481,430.483,430.485,430.488,430.525,430.528,430.53,430.532,430.535,430.537,430.539,430.542,430.58,430.586,430.588,430.59,430.593,430.595,430.597,430.603,430.64,430.643,430.645,430.647,430.65,430.652,430.654,430.658,430.693,430.698,430.7,430.702,430.706,430.708,430.71,430.714,430.753,430.759,430.761,430.763,430.766,430.768,430.77,430.774,430.811,430.815,430.817,430.819,430.823,430.825,430.827,430.83,430.865,430.868,430.87,430.872,430.875,430.877,430.879,430.883,430.918,430.922,430.924,430.926,430.931,430.933,430.935,430.939,430.974,430.977,430.979,430.981,430.984,430.986,430.988,430.992,431.031,431.037,431.039,431.041,431.045,431.047,431.049,431.052,431.087,431.089,431.092,431.094,431.097,431.099,431.101,431.105,431.142,431.144,431.147,431.149,431.152,431.154,431.156,431.159,431.196,431.202,431.204,431.206,431.209,431.211,431.213,431.219,431.255,431.261,431.263,431.265,431.269,431.271,431.273,431.278,431.315,431.318,431.32,431.322,431.326,431.328,431.33,431.334,431.369,431.374,431.376,431.378,431.383,431.385,431.387,431.391,431.428,431.434,431.436,431.438,431.441,431.443,431.445,431.45,431.487,431.49,431.492,431.494,431.499,431.501,431.503,431.506,431.543,431.549,431.551,431.553,431.556,431.558,431.56,431.563,431.6,431.604,431.606,431.608,431.612,431.614,431.616,431.619,431.655,431.661,431.663,431.665,431.668,431.67,431.672,431.676,431.712,431.714,431.717,431.719,431.722,431.724,431.726,431.729,431.766,431.77,431.772,431.774,431.778,431.78,431.782,431.788,431.825,431.831,431.833,431.835,431.839,431.841,431.843,431.849,431.884,431.888,431.89,431.892,431.896,431.898,431.9,431.903,431.938,431.94,431.942,431.944,431.947,431.949,431.951,431.955,431.99,431.996,431.998,432.0,432.003,432.005,432.007,432.011,432.047,432.052,432.054,432.056,432.06,432.062,432.064,432.068,432.103,432.109,432.111,432.113,432.116,432.118,432.12,432.124,432.162,432.167,432.169,432.171,432.177,432.179,432.181,432.185,432.222,432.224,432.227,432.229,432.232,432.234,432.236,432.239,432.278,432.281,432.283,432.285,432.289,432.291,432.293,432.297,432.33,432.335,432.337,432.339,432.342,432.344,432.346,432.35,432.387,432.392,432.394,432.396,432.402,432.404,432.406,432.409,432.445,432.45,432.452,432.454,432.458,432.46,432.462,432.466,432.501,432.503,432.506,432.508,432.511,432.513,432.515,432.519,432.553,432.558,432.56,432.562,432.566,432.568,432.57,432.574,432.613,432.618,432.62,432.622,432.626,432.628,432.63,432.634,432.673,432.677,432.679,432.681,432.687,432.689,432.691,432.696,432.732,432.734,432.737,432.739,432.742,432.744,432.746,432.749,432.785,432.791,432.793,432.795,432.8,432.802,432.804,432.809,432.845,432.851,432.853,432.855,432.858,432.86,432.862,432.867,432.902,432.908,432.91,432.912,432.915,432.917,432.919,432.923,432.958,432.964,432.966,432.968,432.971,432.973,432.975,432.979,433.018,433.023,433.025,433.027,433.031,433.033,433.035,433.04,433.08,433.083,433.085,433.087,433.091,433.093,433.095,433.099,433.135,433.139,433.141,433.143,433.148,433.15,433.152,433.156,433.192,433.198,433.2,433.202,433.205,433.207,433.209,433.213,433.25,433.256,433.258,433.26,433.263,433.265,433.267,433.272,433.307,433.313,433.315,433.317,433.32,433.322,433.324,433.328,433.362,433.364,433.367,433.369,433.372,433.374,433.376,433.379,433.415,433.421,433.423,433.425,433.428,433.43,433.432,433.438,433.475,433.481,433.483,433.485,433.488,433.49,433.492,433.497,433.531,433.537,433.539,433.541,433.544,433.546,433.548,433.553,433.59,433.594,433.596,433.598,433.602,433.604,433.606,433.61,433.648,433.651,433.653,433.655,433.657,433.659,433.661,433.664,433.702,433.707,433.709,433.711,433.715,433.717,433.719,433.723,433.761,433.764,433.766,433.768,433.772,433.774,433.776,433.781,433.817,433.822,433.824,433.826,433.83,433.832,433.834,433.838,433.875,433.88,433.882,433.884,433.888,433.89,433.892,433.896,433.935,433.939,433.941,433.943,433.946,433.948,433.95,433.954,433.992,433.997,433.999,434.001,434.004,434.006,434.008,434.012,434.048,434.054,434.056,434.058,434.061,434.063,434.065,434.069,434.106,434.108,434.111,434.113,434.116,434.118,434.12,434.124,434.159,434.163,434.165,434.167,434.171,434.173,434.175,434.179,434.216,434.221,434.223,434.225,434.228,434.23,434.232,434.235,434.27,434.274,434.276,434.278,434.281,434.283,434.285,434.291,434.325,434.329,434.331,434.333,434.337,434.339,434.341,434.346,434.385,434.387,434.389,434.394,434.396,434.398,434.401,434.403,434.442,434.444,434.446,434.45,434.452,434.454,434.458,434.46,434.499,434.501,434.503,434.506,434.508,434.51,434.513,434.515,434.554,434.556,434.558,434.562,434.564,434.566,434.57,434.572,434.61,434.612,434.614,434.618,434.62,434.622,434.626,434.628,434.669,434.671,434.673,434.676,434.678,434.68,434.684,434.686,434.724,434.726,434.728,434.732,434.734,434.736,434.742,434.744,434.782,434.784,434.786,434.789,434.791,434.793,434.798,434.8,434.837,434.84,434.842,434.847,434.849,434.851,434.854,434.856,434.897,434.899,434.901,434.906,434.908,434.91,434.914,434.916,434.959,434.961,434.963,434.967,434.969,434.971,434.975,434.977,435.019,435.021,435.023,435.027,435.029,435.031,435.035,435.037,435.079,435.081,435.083,435.086,435.088,435.09,435.095,435.097,435.135,435.137,435.139,435.142,435.144,435.146,435.15,435.152,435.194,435.196,435.198,435.201,435.203,435.205,435.209,435.211,435.253,435.255,435.257,435.26,435.262,435.264,435.268,435.27,435.309,435.311,435.313,435.316,435.318,435.32,435.324,435.326,435.365,435.367,435.369,435.372,435.374,435.376,435.38,435.382,435.423,435.425,435.427,435.431,435.433,435.435,435.439,435.441,435.483,435.485,435.487,435.491,435.493,435.495,435.499,435.501,435.539,435.541,435.543,435.547,435.549,435.551,435.554,435.556,435.594,435.596,435.598,435.601,435.603,435.605,435.609,435.611,435.651,435.653,435.655,435.659,435.661,435.663,435.668,435.67,435.71,435.712,435.714,435.718,435.72,435.722,435.726,435.728,435.768,435.77,435.772,435.777,435.779,435.781,435.784,435.786,435.826,435.828,435.83,435.834,435.836,435.838,435.841,435.843,435.881,435.884,435.886,435.889,435.891,435.893,435.898,435.9,435.939,435.941,435.943,435.946,435.948,435.95,435.956,435.958,435.994,435.996,435.998,436.001,436.003,436.005,436.009,436.011,436.05,436.052,436.057,436.059,436.061,436.065,436.067,436.069,436.111,436.113,436.115,436.117,436.119,436.121,436.124,436.126,436.165,436.17,436.172,436.174,436.178,436.18,436.182,436.186,436.223,436.228,436.23,436.232,436.236,436.238,436.24,436.243,436.281,436.283,436.286,436.288,436.291,436.293,436.295,436.301,436.336,436.338,436.341,436.343,436.346,436.348,436.35,436.354,436.393,436.395,436.397,436.402,436.404,436.406,436.409,436.411,436.451,436.453,436.455,436.458,436.46,436.462,436.466,436.468,436.509,436.511,436.513,436.517,436.519,436.521,436.527,436.529,436.567,436.569,436.571,436.574,436.576,436.578,436.582,436.584,436.624,436.626,436.628,436.632,436.634,436.636,436.64,436.642,436.684,436.686,436.688,436.691,436.693,436.695,436.699,436.701,436.741,436.743,436.745,436.748,436.75,436.752,436.755,436.757,436.799,436.801,436.803,436.806,436.808,436.81,436.814,436.816,436.853,436.856,436.858,436.861,436.863,436.865,436.869,436.871,436.911,436.913,436.915,436.919,436.921,436.923,436.929,436.931,436.967,436.97,436.972,436.977,436.979,436.981,436.984,436.986,437.022,437.025,437.027,437.03,437.032,437.034,437.038,437.04,437.082,437.084,437.086,437.09,437.092,437.094,437.098,437.1,437.138,437.141,437.143,437.146,437.148,437.15,437.155,437.157,437.198,437.2,437.202,437.205,437.207,437.209,437.214,437.216,437.257,437.259,437.261,437.264,437.266,437.268,437.272,437.274,437.312,437.314,437.319,437.321,437.323,437.326,437.328,437.33,437.37,437.375,437.377,437.379,437.383,437.385,437.387,437.391,437.429,437.431,437.434,437.436,437.439,437.441,437.443,437.446,437.482,437.488,437.49,437.492,437.496,437.498,437.5,437.503,437.542,437.544,437.547,437.549,437.552,437.554,437.556,437.562,437.601,437.603,437.606,437.608,437.611,437.613,437.615,437.619,437.654,437.656,437.659,437.661,437.666,437.668,437.67,437.673,437.71,437.713,437.715,437.717,437.721,437.723,437.725,437.727,437.765,437.771,437.773,437.775,437.778,437.78,437.782,437.785,437.821,437.824,437.826,437.828,437.833,437.835,437.837,437.841,437.878,437.881,437.883,437.885,437.889,437.891,437.893,437.897,437.935,437.94,437.942,437.944,437.948,437.95,437.952,437.956,437.993,437.999,438.001,438.003,438.007,438.009,438.011,438.014,438.051,438.053,438.056,438.058,438.061,438.063,438.065,438.069,438.108,438.113,438.115,438.117,438.12,438.122,438.124,438.129,438.163,438.168,438.17,438.172,438.174,438.177,438.179,438.181,438.218,438.224,438.226,438.228,438.231,438.233,438.235,438.238,438.276,438.279,438.281,438.283,438.286,438.288,438.29,438.296,438.331,438.337,438.339,438.341,438.344,438.346,438.348,438.353,438.389,438.394,438.396,438.398,438.401,438.403,438.405,438.409,438.446,438.452,438.454,438.456,438.459,438.461,438.463,438.467,438.506,438.508,438.51,438.512,438.515,438.517,438.519,438.522,438.559,438.563,438.565,438.567,438.57,438.572,438.574,438.58,438.615,438.619,438.621,438.623,438.626,438.628,438.63,438.634,438.674,438.678,438.68,438.682,438.684,438.687,438.689,438.691,438.728,438.731,438.733,438.735,438.738,438.74,438.742,438.744,438.78,438.786,438.788,438.79,438.794,438.796,438.798,438.803,438.838,438.841,438.843,438.845,438.847,438.849,438.851,438.854,438.891,438.893,438.896,438.898,438.901,438.903,438.905,438.909,438.945,438.95,438.952,438.954,438.957,438.959,438.961,438.965,439.001,439.003,439.005,439.007,439.01,439.012,439.014,439.017,439.054,439.059,439.061,439.063,439.067,439.069,439.071,439.077,439.112,439.117,439.119,439.121,439.124,439.126,439.128,439.133,439.168,439.173,439.175,439.177,439.181,439.183,439.185,439.189,439.226,439.231,439.233,439.235,439.241,439.243,439.245,439.248,439.285,439.287,439.289,439.291,439.294,439.296,439.298,439.302,439.339,439.344,439.346,439.348,439.351,439.353,439.355,439.361,439.396,439.4,439.402,439.404,439.407,439.409,439.411,439.415,439.454,439.46,439.462,439.464,439.467,439.469,439.471,439.476,439.513,439.515,439.518,439.52,439.524,439.526,439.528,439.531,439.568,439.574,439.576,439.578,439.581,439.583,439.585,439.588,439.625,439.629,439.631,439.633,439.637,439.639,439.641,439.647,439.681,439.683,439.686,439.688,439.69,439.692,439.694,439.697,439.733,439.738,439.74,439.742,439.746,439.748,439.75,439.753,439.788,439.793,439.795,439.797,439.8,439.802,439.804,439.81,439.843,439.848,439.85,439.852,439.854,439.856,439.861,439.863,439.901,439.903,439.905,439.908,439.91,439.912,439.914,439.916,439.958,439.96,439.962,439.964,439.968,439.97,439.972,439.974,440.01,440.012,440.015,440.017,440.019,440.021,440.023,440.025,440.061,440.063,440.065,440.068,440.071,440.073,440.075,440.078,440.114,440.12,440.122,440.124,440.127,440.129,440.131,440.135,440.171,440.173,440.176,440.178,440.181,440.183,440.185,440.189,440.226,440.228,440.23,440.233,440.236,440.238,440.24,440.243,440.28,440.286,440.288,440.29,440.293,440.295,440.297,440.301,440.336,440.341,440.343,440.345,440.349,440.351,440.353,440.357,440.394,440.398,440.4,440.402,440.406,440.408,440.41,440.414,440.451,440.457,440.459,440.461,440.465,440.467,440.469,440.473,440.511,440.513,440.515,440.518,440.521,440.523,440.525,440.528,440.563,440.568,440.57,440.572,440.574,440.577,440.581,440.583,440.623,440.625,440.627,440.63,440.632,440.634,440.638,440.64,440.68,440.682,440.684,440.687,440.689,440.691,440.694,440.696,440.736,440.738,440.74,440.743,440.745,440.747,440.751,440.753,440.791,440.794,440.796,440.799,440.801,440.803,440.806,440.808,440.848,440.85,440.852,440.855,440.857,440.859,440.863,440.865,440.907,440.909,440.911,440.914,440.916,440.918,440.922,440.924,440.964,440.966,440.968,440.971,440.973,440.975,440.979,440.981,441.019,441.021,441.023,441.027,441.029,441.031,441.035,441.037,441.077,441.079,441.081,441.083,441.085,441.087,441.09,441.092,441.13,441.132,441.134,441.137,441.139,441.141,441.144,441.146,441.183,441.185,441.187,441.189,441.191,441.193,441.196,441.198,441.236,441.238,441.24,441.244,441.246,441.248,441.251,441.253,441.289,441.292,441.294,441.297,441.299,441.301,441.305,441.307,441.342,441.345,441.347,441.35,441.352,441.354,441.357,441.359,441.396,441.399,441.401,441.404,441.406,441.408,441.413,441.415,441.454,441.456,441.458,441.462,441.464,441.466,441.47,441.472,441.513,441.515,441.517,441.519,441.522,441.524,441.527,441.529,441.57,441.572,441.574,441.578,441.58,441.582,441.585,441.587,441.628,441.63,441.632,441.635,441.637,441.639,441.644,441.646,441.683,441.686,441.688,441.691,441.693,441.695,441.698,441.7,441.74,441.742,441.744,441.747,441.749,441.751,441.755,441.757,441.796,441.798,441.8,441.803,441.805,441.807,441.811,441.813,441.851,441.853,441.855,441.859,441.861,441.863,441.866,441.868,441.909,441.911,441.913,441.916,441.918,441.92,441.925,441.927,441.962,441.965,441.967,441.969,441.971,441.973,441.977,441.979,442.021,442.023,442.025,442.028,442.03,442.032,442.035,442.037,442.077,442.079,442.081,442.084,442.086,442.088,442.092,442.094,442.133,442.135,442.137,442.14,442.142,442.144,442.15,442.152,442.188,442.191,442.193,442.195,442.197,442.199,442.201,442.203,442.243,442.245,442.247,442.25,442.252,442.254,442.257,442.259,442.299,442.301,442.303,442.307,442.309,442.311,442.317,442.319,442.36,442.362,442.364,442.367,442.369,442.371,442.377,442.379,442.417,442.419,442.421,442.424,442.426,442.428,442.433,442.435,442.474,442.476,442.478,442.48,442.483,442.486,442.488,442.49,442.529,442.535,442.537,442.539,442.542,442.544,442.546,442.55,442.586,442.591,442.593,442.595,442.601,442.603,442.605,442.608,442.646,442.65,442.652,442.654,442.66,442.662,442.664,442.667,442.705,442.71,442.712,442.714,442.72,442.722,442.724,442.727,442.762,442.766,442.768,442.77,442.774,442.776,442.778,442.781,442.817,442.823,442.825,442.827,442.83,442.832,442.834,442.838,442.875,442.881,442.883,442.885,442.888,442.89,442.892,442.896,442.933,442.939,442.941,442.943,442.946,442.948,442.95,442.954,442.991,442.996,442.998,443.0,443.006,443.008,443.01,443.014,443.051,443.053,443.056,443.058,443.061,443.063,443.065,443.069,443.106,443.109,443.111,443.113,443.117,443.119,443.121,443.126,443.163,443.168,443.17,443.172,443.176,443.178,443.18,443.183,443.218,443.223,443.225,443.227,443.231,443.233,443.235,443.238,443.275,443.277,443.279,443.281,443.284,443.286,443.288,443.292,443.328,443.332,443.334,443.336,443.339,443.341,443.343,443.348,443.384,443.39,443.392,443.394,443.397,443.399,443.401,443.405,443.441,443.447,443.449,443.451,443.453,443.455,443.46,443.462,443.5,443.502,443.504,443.507,443.509,443.511,443.513,443.515,443.556,443.56,443.562,443.564,443.568,443.57,443.572,443.577,443.615,443.619,443.621,443.623,443.627,443.629,443.631,443.634,443.669,443.671,443.674,443.676,443.678,443.68,443.682,443.684,443.719,443.724,443.726,443.728,443.732,443.734,443.736,443.742,443.776,443.782,443.784,443.786,443.789,443.791,443.793,443.798,443.837,443.839,443.841,443.843,443.845,443.851,443.853,443.855,443.895,443.901,443.903,443.905,443.908,443.91,443.912,443.916,443.954,443.96,443.962,443.964,443.967,443.969,443.971,443.975,444.013,444.018,444.02,444.022,444.026,444.028,444.03,444.034,444.071,444.077,444.079,444.081,444.087,444.089,444.091,444.095,444.131,444.136,444.138,444.14,444.146,444.148,444.15,444.153,444.191,444.196,444.198,444.2,444.206,444.208,444.21,444.213,444.25,444.252,444.254,444.256,444.259,444.261,444.263,444.266,444.303,444.309,444.311,444.313,444.316,444.318,444.32,444.323,444.356,444.361,444.363,444.365,444.371,444.373,444.375,444.378,444.413,444.418,444.42,444.422,444.426,444.428,444.43,444.436,444.47,444.474,444.476,444.478,444.482,444.484,444.486,444.489,444.525,444.531,444.533,444.535,444.538,444.54,444.542,444.546,444.583,444.589,444.591,444.593,444.596,444.598,444.6,444.604,444.643,444.647,444.649,444.651,444.654,444.656,444.658,444.662,444.697,444.702,444.704,444.706,444.71,444.712,444.714,444.717,444.754,444.756,444.758,444.76,444.765,444.767,444.769,444.775,444.81,444.814,444.816,444.818,444.821,444.823,444.825,444.829,444.866,444.872,444.874,444.876,444.879,444.881,444.883,444.886,444.923,444.925,444.927,444.931,444.933,444.935,444.939,444.941,444.98,444.982,444.984,444.987,444.989,444.991,444.995,444.997,445.033,445.036,445.038,445.041,445.043,445.045,445.049,445.051,445.089,445.091,445.093,445.097,445.099,445.101,445.106,445.108,445.147,445.149,445.151,445.155,445.157,445.159,445.165,445.167,445.205,445.207,445.209,445.212,445.214,445.216,445.221,445.223,445.257,445.26,445.262,445.265,445.267,445.269,445.272,445.274,445.312,445.314,445.316,445.319,445.321,445.323,445.327,445.329,445.365,445.368,445.37,445.374,445.376,445.378,445.382,445.384,445.417,445.419,445.421,445.424,445.426,445.428,445.433,445.435,445.472,445.474,445.476,445.482,445.484,445.486,445.489,445.491,445.529,445.531,445.533,445.539,445.541,445.543,445.546,445.548,445.584,445.586,445.588,445.592,445.594,445.596,445.6,445.602,445.641,445.643,445.645,445.649,445.651,445.653,445.658,445.66,445.698,445.7,445.703,445.705,445.707,445.711,445.713,445.715,445.755,445.761,445.763,445.765,445.768,445.77,445.772,445.776,445.814,445.817,445.819,445.821,445.826,445.828,445.83,445.834,445.871,445.873,445.875,445.877,445.88,445.882,445.884,445.888,445.927,445.929,445.932,445.934,445.936,445.938,445.94,445.944,445.98,445.985,445.987,445.989,445.993,445.995,445.997,446.001,446.039,446.042,446.044,446.046,446.049,446.051,446.053,446.056,446.091,446.096,446.098,446.1,446.104,446.106,446.108,446.11,446.147,446.151,446.153,446.155,446.159,446.161,446.163,446.168,446.206,446.208,446.21,446.216,446.218,446.22,446.223,446.225,446.263,446.265,446.267,446.27,446.272,446.274,446.277,446.279,446.315,446.318,446.32,446.323,446.325,446.327,446.331,446.333,446.372,446.374,446.376,446.379,446.381,446.383,446.386,446.388,446.425,446.427,446.429,446.432,446.434,446.436,446.439,446.441,446.479,446.481,446.483,446.486,446.488,446.49,446.494,446.496,446.535,446.537,446.539,446.544,446.546,446.548,446.552,446.554,446.591,446.593,446.595,446.599,446.601,446.603,446.606,446.608,446.644,446.647,446.649,446.651,446.653,446.655,446.659,446.661,446.701,446.703,446.705,446.708,446.71,446.712,446.716,446.718,446.755,446.757,446.759,446.762,446.764,446.766,446.771,446.773,446.812,446.814,446.816,446.819,446.821,446.823,446.829,446.831,446.865,446.868,446.87,446.874,446.876,446.878,446.881,446.883,446.92,446.922,446.924,446.928,446.93,446.932,446.938,446.94,446.977,446.979,446.981,446.984,446.986,446.988,446.994,446.996,447.033,447.035,447.037,447.043,447.045,447.047,447.05,447.052,447.092,447.094,447.096,447.098,447.1,447.102,447.106,447.108,447.148,447.15,447.152,447.155,447.157,447.159,447.162,447.164,447.205,447.207,447.209,447.213,447.215,447.217,447.222,447.224,447.261,447.263,447.265,447.269,447.271,447.273,447.279,447.281,447.316,447.318,447.32,447.324,447.326,447.328,447.331,447.333,447.373,447.375,447.377,447.38,447.382,447.384,447.389,447.391,447.431,447.433,447.435,447.438,447.44,447.442,447.445,447.447,447.484,447.487,447.489,447.491,447.493,447.495,447.499,447.501,447.54,447.542,447.544,447.549,447.551,447.553,447.557,447.559,447.595,447.597,447.599,447.603,447.605,447.607,447.613,447.615,447.654,447.656,447.658,447.662,447.664,447.666,447.668,447.671,447.709,447.711,447.713,447.719,447.721,447.723,447.726,447.728,447.768,447.77,447.772,447.778,447.78,447.782,447.785,447.787,447.822,447.825,447.827,447.83,447.832,447.834,447.837,447.839,447.879,447.881,447.883,447.887,447.889,447.891,447.897,447.899,447.938,447.94,447.942,447.945,447.947,447.949,447.955,447.957,447.99,447.993,447.995,447.998,448.0,448.002,448.005,448.007,448.044,448.046,448.048,448.052,448.054,448.056,448.062,448.064,448.106,448.108,448.11,448.113,448.115,448.117,448.123,448.125,448.162,448.164,448.166,448.169,448.171,448.173,448.178,448.181,448.216,448.218,448.22,448.222,448.224,448.226,448.229,448.231,448.273,448.275,448.277,448.28,448.282,448.284,448.288,448.29,448.329,448.331,448.333,448.337,448.339,448.341,448.347,448.349,448.384,448.387,448.389,448.394,448.396,448.398,448.401,448.403,448.443,448.445,448.447,448.453,448.455,448.457,448.46,448.462,448.499,448.501,448.506,448.508,448.51,448.513,448.515,448.517,448.56,448.565,448.567,448.569,448.574,448.576,448.578,448.582,448.618,448.621,448.623,448.625,448.628,448.63,448.632,448.636,448.671,448.675,448.677,448.679,448.683,448.685,448.687,448.691,448.728,448.734,448.736,448.738,448.741,448.743,448.745,448.751,448.784,448.786,448.789,448.791,448.793,448.795,448.797,448.8,448.836,448.84,448.842,448.844,448.848,448.85,448.852,448.856,448.892,448.894,448.897,448.899,448.902,448.904,448.906,448.91,448.948,448.953,448.955,448.957,448.961,448.963,448.965,448.969,449.008,449.013,449.015,449.017,449.023,449.025,449.027,449.03,449.068,449.073,449.075,449.077,449.081,449.083,449.085,449.089,449.126,449.128,449.13,449.132,449.135,449.137,449.139,449.145,449.183,449.186,449.188,449.19,449.193,449.195,449.197,449.203,449.239,449.243,449.245,449.247,449.251,449.253,449.255,449.26,449.294,449.299,449.301,449.303,449.306,449.308,449.31,449.314,449.35,449.352,449.354,449.356,449.359,449.361,449.363,449.366,449.403,449.409,449.411,449.413,449.416,449.418,449.42,449.426,449.459,449.465,449.467,449.469,449.472,449.474,449.476,449.479,449.518,449.522,449.524,449.526,449.532,449.534,449.536,449.539,449.576,449.581,449.583,449.585,449.588,449.59,449.592,449.595,449.632,449.638,449.64,449.642,449.645,449.647,449.649,449.653,449.688,449.691,449.693,449.695,449.698,449.7,449.702,449.706,449.744,449.75,449.752,449.754,449.757,449.759,449.761,449.765,449.802,449.807,449.809,449.811,449.817,449.819,449.821,449.825,449.863,449.867,449.869,449.871,449.877,449.879,449.881,449.884,449.921,449.926,449.928,449.93,449.933,449.935,449.937,449.941,449.977,449.979,449.982,449.984,449.987,449.989,449.991,449.996,450.031,450.037,450.039,450.041,450.044,450.046,450.048,450.054,450.092,450.094,450.097,450.099,450.101,450.103,450.105,450.109,450.145,450.148,450.15,450.152,450.155,450.157,450.159,450.163,450.201,450.204,450.206,450.208,450.211,450.213,450.215,450.219,450.254,450.26,450.262,450.264,450.267,450.269,450.271,450.275,450.314,450.316,450.318,450.323,450.325,450.327,450.33,450.332,450.371,450.373,450.375,450.379,450.381,450.383,450.388,450.39,450.428,450.43,450.432,450.436,450.438,450.44,450.446,450.448,450.485,450.487,450.489,450.492,450.494,450.496,450.5,450.502,450.544,450.546,450.548,450.551,450.553,450.555,450.559,450.561,450.597,450.6,450.602,450.605,450.607,450.609,450.612,450.614,450.652,450.654,450.656,450.659,450.661,450.663,450.667,450.669,450.707,450.709,450.711,450.714,450.716,450.718,450.722,450.724,450.76,450.762,450.764,450.768,450.77,450.772,450.776,450.778,450.813,450.816,450.818,450.82,450.822,450.824,450.827,450.829,450.867,450.869,450.871,450.875,450.877,450.879,450.883,450.885,450.924,450.926,450.928,450.931,450.933,450.935,450.939,450.941,450.98,450.982,450.984,450.988,450.99,450.992,450.996,450.998,451.04,451.042,451.044,451.047,451.049,451.051,451.055,451.057,451.099,451.101,451.103,451.106,451.108,451.11,451.114,451.116,451.155,451.157,451.159,451.163,451.165,451.167,451.171,451.173,451.211,451.213,451.215,451.218,451.22,451.222,451.226,451.228,451.268,451.27,451.272,451.276,451.278,451.28,451.285,451.287,451.323,451.326,451.328,451.332,451.334,451.336,451.34,451.342,451.381,451.383,451.385,451.388,451.39,451.392,451.395,451.397,451.434,451.436,451.438,451.442,451.444,451.446,451.451,451.453,451.491,451.493,451.495,451.499,451.501,451.503,451.507,451.509,451.55,451.552,451.554,451.557,451.559,451.561,451.566,451.568,451.604,451.606,451.608,451.611,451.613,451.615,451.619,451.621,451.659,451.661,451.663,451.667,451.669,451.671,451.674,451.676,451.714,451.716,451.718,451.721,451.723,451.725,451.729,451.731,451.768,451.77,451.772,451.775,451.777,451.779,451.783,451.785,451.824,451.826,451.828,451.831,451.833,451.835,451.839,451.841,451.875,451.878,451.88,451.884,451.886,451.888,451.893,451.895,451.939,451.941,451.943,451.946,451.948,451.95,451.954,451.956,451.996,451.998,452.0,452.003,452.005,452.007,452.011,452.013,452.051,452.053,452.055,452.058,452.06,452.062,452.066,452.068,452.109,452.111,452.113,452.116,452.118,452.12,452.124,452.126,452.163,452.165,452.167,452.171,452.173,452.175,452.179,452.181,452.222,452.224,452.226,452.229,452.231,452.233,452.236,452.238,452.274,452.276,452.278,452.281,452.283,452.285,452.29,452.292,452.332,452.334,452.336,452.339,452.341,452.343,452.347,452.349,452.389,452.391,452.393,452.396,452.398,452.4,452.404,452.406,452.448,452.45,452.452,452.456,452.458,452.46,452.464,452.466,452.508,452.51,452.512,452.516,452.518,452.52,452.524,452.526,452.566,452.568,452.57,452.573,452.575,452.577,452.581,452.583,452.622,452.624,452.626,452.629,452.631,452.633,452.638,452.64,452.679,452.681,452.683,452.686,452.688,452.69,452.694,452.696,452.734,452.736,452.738,452.741,452.743,452.745,452.749,452.751,452.788,452.79,452.792,452.795,452.797,452.799,452.802,452.804,452.84,452.843,452.845,452.849,452.851,452.853,452.857,452.859,452.898,452.9,452.902,452.906,452.908,452.91,452.915,452.917,452.96,452.962,452.964,452.967,452.969,452.971,452.976,452.978,453.017,453.019,453.021,453.027,453.029,453.031,453.034,453.036,453.073,453.076,453.078,453.081,453.083,453.085,453.088,453.09,453.132,453.134,453.136,453.139,453.141,453.143,453.148,453.15,453.189,453.191,453.193,453.196,453.198,453.2,453.204,453.206,453.24,453.243,453.245,453.249,453.251,453.253,453.257,453.259,453.3,453.302,453.304,453.307,453.309,453.311,453.317,453.319,453.354,453.356,453.358,453.361,453.363,453.365,453.369,453.371,453.408,453.41,453.412,453.415,453.417,453.419,453.423,453.425,453.464,453.466,453.468,453.472,453.474,453.476,453.479,453.481,453.518,453.521,453.523,453.526,453.528,453.53,453.534,453.536,453.573,453.575,453.577,453.581,453.583,453.585,453.589,453.591,453.63,453.632,453.634,453.639,453.641,453.643,453.647,453.649,453.685,453.687,453.689,453.692,453.694,453.696,453.702,453.704,453.743,453.745,453.747,453.751,453.753,453.755,453.759,453.761,453.798,453.8,453.802,453.806,453.808,453.81,453.814,453.816,453.852,453.855,453.857,453.86,453.862,453.864,453.867,453.869,453.908,453.91,453.912,453.916,453.918,453.92,453.924,453.926,453.964,453.966,453.968,453.971,453.973,453.975,453.979,453.981,454.023,454.025,454.027,454.031,454.033,454.035,454.039,454.041,454.081,454.083,454.085,454.088,454.09,454.092,454.096,454.098,454.137,454.139,454.141,454.145,454.147,454.149,454.152,454.154,454.19,454.193,454.195,454.197,454.199,454.201,454.205,454.207,454.247,454.249,454.251,454.254,454.256,454.258,454.261,454.263,454.302,454.304,454.306,454.309,454.311,454.313,454.316,454.318,454.358,454.36,454.362,454.366,454.368,454.37,454.374,454.376,454.412,454.414,454.416,454.422,454.424,454.426,454.429,454.431,454.472,454.474,454.476,454.482,454.484,454.486,454.489,454.491,454.531,454.533,454.535,454.539,454.541,454.543,454.547,454.549,454.584,454.586,454.588,454.59,454.592,454.594,454.6,454.602,454.639,454.641,454.643,454.646,454.648,454.65,454.654,454.656,454.695,454.697,454.699,454.703,454.705,454.707,454.711,454.713,454.753,454.755,454.757,454.76,454.762,454.764,454.768,454.77,454.81,454.812,454.814,454.817,454.819,454.821,454.826,454.828,454.868,454.87,454.872,454.876,454.878,454.88,454.884,454.886,454.923,454.925,454.927,454.931,454.933,454.935,454.939,454.941,454.979,454.981,454.983,454.987,454.989,454.991,454.995,454.997,455.037,455.039,455.041,455.044,455.046,455.048,455.053,455.055,455.089,455.092,455.094,455.096,455.098,455.1,455.104,455.106,455.147,455.149,455.151,455.153,455.155,455.157,455.16,455.162,455.199,455.201,455.203,455.206,455.208,455.21,455.214,455.216,455.25,455.253,455.255,455.258,455.26,455.262,455.266,455.268,455.306,455.308,455.31,455.314,455.316,455.318,455.323,455.325,455.359,455.362,455.364,455.367,455.369,455.371,455.375,455.377,455.416,455.418,455.42,455.423,455.425,455.427,455.43,455.432,455.47,455.472,455.474,455.477,455.479,455.481,455.487,455.489,455.528,455.53,455.532,455.535,455.537,455.539,455.542,455.544,455.584,455.586,455.588,455.592,455.594,455.596,455.6,455.602,455.643,455.645,455.647,455.651,455.653,455.655,455.659,455.661,455.7,455.702,455.704,455.707,455.709,455.711,455.714,455.716,455.753,455.755,455.757,455.761,455.763,455.765,455.769,455.771,455.809,455.811,455.813,455.816,455.818,455.82,455.824,455.826,455.869,455.871,455.873,455.877,455.879,455.881,455.885,455.887,455.928,455.93,455.932,455.936,455.938,455.94,455.944,455.946,455.987,455.989,455.991,455.995,455.997,455.999,456.003,456.005,456.046,456.048,456.05,456.053,456.055,456.057,456.061,456.063,456.102,456.104,456.106,456.11,456.112,456.114,456.117,456.119,456.158,456.16,456.162,456.165,456.167,456.169,456.175,456.177,456.215,456.217,456.219,456.223,456.225,456.227,456.231,456.233,456.271,456.274,456.276,456.28,456.282,456.284,456.289,456.291,456.327,456.33,456.332,456.335,456.337,456.339,456.342,456.344,456.385,456.387,456.389,456.393,456.395,456.397,456.401,456.403,456.438,456.441,456.443,456.448,456.45,456.452,456.455,456.457,456.497,456.499,456.501,456.504,456.506,456.508,456.511,456.513,456.553,456.555,456.557,456.56,456.562,456.564,456.568,456.57,456.612,456.614,456.616,456.619,456.621,456.623,456.628,456.63,456.668,456.67,456.672,456.675,456.677,456.679,456.685,456.687,456.724,456.726,456.728,456.734,456.736,456.738,456.742,456.744,456.785,456.787,456.789,456.792,456.794,456.796,456.8,456.802,456.841,456.843,456.845,456.848,456.85,456.852,456.855,456.857,456.898,456.9,456.902,456.905,456.907,456.909,456.913,456.915,456.954,456.956,456.958,456.962,456.964,456.966,456.97,456.972,457.011,457.013,457.015,457.018,457.02,457.022,457.026,457.028,457.065,457.068,457.07,457.074,457.076,457.078,457.082,457.084,457.122,457.125,457.127,457.13,457.132,457.134,457.138,457.14,457.181,457.183,457.185,457.189,457.191,457.193,457.197,457.199,457.235,457.237,457.239,457.243,457.245,457.247,457.252,457.254,457.294,457.296,457.298,457.301,457.303,457.305,457.309,457.311,457.346,457.348,457.35,457.353,457.355,457.357,457.363,457.365,457.406,457.408,457.41,457.414,457.416,457.418,457.422,457.424,457.464,457.466,457.468,457.472,457.474,457.476,457.48,457.482,457.518,457.52,457.522,457.527,457.529,457.531,457.534,457.536,457.577,457.579,457.581,457.584,457.586,457.588,457.592,457.594,457.63,457.632,457.634,457.637,457.639,457.641,457.647,457.649,457.688,457.69,457.692,457.696,457.698,457.7,457.704,457.706,457.741,457.744,457.746,457.749,457.751,457.753,457.756,457.758,457.795,457.797,457.799,457.802,457.804,457.806,457.811,457.813,457.853,457.855,457.857,457.86,457.862,457.864,457.869,457.871,457.912,457.914,457.916,457.919,457.921,457.923,457.927,457.929,457.969,457.971,457.973,457.975,457.977,457.982,457.984,457.986,458.025,458.031,458.033,458.035,458.038,458.04,458.042,458.046,458.084,458.09,458.092,458.094,458.097,458.099,458.101,458.105,458.144,458.148,458.15,458.152,458.158,458.16,458.162,458.165,458.203,458.209,458.211,458.213,458.216,458.218,458.22,458.224,458.261,458.263,458.265,458.267,458.27,458.272,458.274,458.278,458.313,458.319,458.321,458.323,458.326,458.328,458.33,458.334,458.369,458.374,458.376,458.378,458.384,458.386,458.388,458.391,458.428,458.434,458.436,458.438,458.44,458.442,458.447,458.449,458.489,458.491,458.493,458.497,458.499,458.501,458.505,458.507,458.545,458.547,458.549,458.552,458.554,458.556,458.561,458.563
