0,1,2,3,4,5,6,7,8,9,10,11,12,13,14,15,16,17,18,19,20,21,22,23,24,25,26,27,28,29,30,31,32,33,34,35,36,37,38,39,40,41,42,43,44,45,46,47,48,49,50,51,52,53,54,55,56,57,58,59,60,61,62,63,64,65,66,67,68,69,70,71,72,73,74,75,76,77,78,79,80,81,82,83,84,85,86,87,88,89,90,91,92,93,94,95,96,97,98,99,100,101,102,103,104,105,106,107,108,109,110,111,112,113,114,115,116,117,118,119,120,121,122,123,124,125,126,127,128,129,130,131,132,133,134,135,136,137,138,139,140,141,142,143,144,145,146,147,148,149,150,151,152,153,154,155,156,157,158,159,160,161,162,163,164,165,166,167,168,169,170,171,172,173,174,175,176,177,178,179,180,181,182,183,184,185,186,187,188,189,190,191,192,193,194,195,196,197,198,199,200,201,202,203,204,205,206,207,208,209,210,211,212,213,214,215,216,217,218,219,220,221,222,223,224,225,226,227,228,229,230,231,232,233,234,235,236,237,238,239,240,241,242,243,244,245,246,247,248,249,250,251,252,253,254,255,256,257,258,259,260,261,262,263,264,265,266,267,268,269,270,271,272,273,274,275,276,277,278,279,280,281,282,283,284,285,286,287,288,289,290,291,292,293,294,295,296,297,298,299,300,301,302,303,304,305,306,307,308,309,310,311,312,313,314,315,316,317,318,319,320,321,322,323,324,325,326,327,328,329,330,331,332,333,334,335,336,337,338,339,340,341,342,343,344,345,346,347,348,349,350,351,352,353,354,355,356,357,358,359,360,361,362,363,364,365,366,367,368,369,370,371,372,373,374,375,376,377,378,379,380,381,382,383,384,385,386,387,388,389,390,391,392,393,394,395,396,397,398,399,400,401,402,403,404,405,406,407,408,409,410,411,412,413,414,415,416,417,418,419,420,421,422,423,424,425,426,427,428,429,430,431,432,433,434,435,436,437,438,439,440,441,442,443,444,445,446,447,448,449,450,451,452,453,454,455,456,457,458,459,460,461,462,463,464,465,466,467,468,469,470,471,472,473,474,475,476,477,478,479,480,481,482,483,484,485,486,487,488,489,490,491,492,493,494,495,496,497,498,499,500,501,502,503,504,505,506,507,508,509,510,511,512,513,514,515,516,517,518,519,520,521,522,523,524,525,526,527,528,529,530,531,532,533,534,535,536,537,538,539,540,541,542,543,544,545,546,547,548,549,550,551,552,553,554,555,556,557,558,559,560,561,562,563,564,565,566,567,568,569,570,571,572,573,574,575,576,577,578,579,580,581,582,583,584,585,586,587,588,589,590,591,592,593,594,595,596,597,598,599,600,601,602,603,604,605,606,607,608,609,610,611,612,613,614,615,616,617,618,619,620,621,622,623,624,625,626,627,628,629,630,631,632,633,634,635,636,637,638,639,640,641,642,643,644,645,646,647,648,649,650,651,652,653,654,655,656,657,658,659,660,661,662,663,664,665,666,667,668,669,670,671,672,673,674,675,676,677,678,679,680,681,682,683,684,685,686,687,688,689,690,691,692,693,694,695,696,697,698,699,700,701,702,703,704,705,706,707,708,709,710,711,712,713,714,715,716,717,718,719,720,721,722,723,724,725,726,727,728,729,730,731,732,733,734,735,736,737,738,739,740,741,742,743,744,745,746,747,748,749,750,751,752,753,754,755,756,757,758,759,760,761,762,763,764,765,766,767,768,769,770,771,772,773,774,775,776,777,778,779,780,781,782,783,784,785,786,787,788,789,790,791,792,793,794,795,796,797,798,799,800,801,802,803,804,805,806,807,808,809,810,811,812,813,814,815,816,817,818,819,820,821,822,823,824,825,826,827,828,829,830,831,832,833,834,835,836,837,838,839,840,841,842,843,844,845,846,847,848,849,850,851,852,853,854,855,856,857,858,859,860,861,862,863,864,865,866,867,868,869,870,871,872,873,874,875,876,877,878,879,880,881,882,883,884,885,886,887,888,889,890,891,892,893,894,895,896,897,898,899,900,901,902,903,904,905,906,907,908,909,910,911,912,913,914,915,916,917,918,919,920,921,922,923,924,925,926,927,928,929,930,931,932,933,934,935,936,937,938,939,940,941,942,943,944,945,946,947,948,949,950,951,952,953,954,955,956,957,958,959,960,961,962,963,964,965,966,967,968,969,970,971,972,973,974,975,976,977,978,979,980,981,982,983,984,985,986,987,988,989,990,991,992,993,994,995,996,997,998,999,1000,1001,1002,1003,1004,1005,1006,1007,1008,1009,1010,1011,1012,1013,1014,1015,1016,1017,1018,1019,1020,1021,1022,1023,1024,1025,1026,1027,1028,1029,1030,1031,1032,1033,1034,1035,1036,1037,1038,1039,1040,1041,1042,1043,1044,1045,1046,1047,1048,1049,1050,1051,1052,1053,1054,1055,1056,1057,1058,1059,1060,1061,1062,1063,1064,1065,1066,1067,1068,1069,1070,1071,1072,1073,1074,1075,1076,1077,1078,1079,1080,1081,1082,1083,1084,1085,1086,1087,1088,1089,1090,1091,1092,1093,1094,1095,1096,1097,1098,1099,1100,1101,1102,1103,1104,1105,1106,1107,1108,1109,1110,1111,1112,1113,1114,1115,1116,1117,1118,1119,1120,1121,1122,1123,1124,1125,1126,1127,1128,1129,1130,1131,1132,1133,1134,1135,1136,1137,1138,1139,1140,1141,1142,1143,1144,1145,1146,1147,1148,1149,1150,1151,1152,1153,1154,1155,1156,1157,1158,1159,1160,1161,1162,1163,1164,1165,1166,1167,1168,1169,1170,1171,1172,1173,1174,1175,1176,1177,1178,1179,1180,1181,1182,1183,1184,1185,1186,1187,1188,1189,1190,1191,1192,1193,1194,1195,1196,1197,1198,1199,1200,1201,1202,1203,1204,1205,1206,1207,1208,1209,1210,1211,1212,1213,1214,1215,1216,1217,1218,1219,1220,1221,1222,1223,1224,1225,1226,1227,1228,1229,1230,1231,1232,1233,1234,1235,1236,1237,1238,1239,1240,1241,1242,1243,1244,1245,1246,1247,1248,1249,1250,1251,1252,1253,1254,1255,1256,1257,1258,1259,1260,1261,1262,1263,1264,1265,1266,1267,1268,1269,1270,1271,1272,1273,1274,1275,1276,1277,1278,1279,1280,1281,1282,1283,1284,1285,1286,1287,1288,1289,1290,1291,1292,1293,1294,1295,1296,1297,1298,1299,1300,1301,1302,1303,1304,1305,1306,1307,1308,1309,1310,1311,1312,1313,1314,1315,1316,1317,1318,1319,1320,1321,1322,1323,1324,1325,1326,1327,1328,1329,1330,1331,1332,1333,1334,1335,1336,1337,1338,1339,1340,1341,1342,1343,1344,1345,1346,1347,1348,1349,1350,1351,1352,1353,1354,1355,1356,1357,1358,1359,1360,1361,1362,1363,1364,1365,1366,1367,1368,1369,1370,1371,1372,1373,1374,1375,1376,1377,1378,1379,1380,1381,1382,1383,1384,1385,1386,1387,1388,1389,1390,1391,1392,1393,1394,1395,1396,1397,1398,1399,1400,1401,1402,1403,1404,1405,1406,1407,1408,1409,1410,1411,1412,1413,1414,1415,1416,1417,1418,1419,1420,1421,1422,1423,1424,1425,1426,1427,1428,1429,1430,1431,1432,1433,1434,1435,1436,1437,1438,1439,1440,1441,1442,1443,1444,1445,1446,1447,1448,1449,1450,1451,1452,1453,1454,1455,1456,1457,1458,1459,1460,1461,1462,1463,1464,1465,1466,1467,1468,1469,1470,1471,1472,1473,1474,1475,1476,1477,1478,1479,1480,1481,1482,1483,1484,1485,1486,1487,1488,1489,1490,1491,1492,1493,1494,1495,1496,1497,1498,1499,1500,1501,1502,1503,1504,1505,1506,1507,1508,1509,1510,1511,1512,1513,1514,1515,1516,1517,1518,1519,1520,1521,1522,1523,1524,1525,1526,1527,1528,1529,1530,1531,1532,1533,1534,1535,1536,1537,1538,1539,1540,1541,1542,1543,1544,1545,1546,1547,1548,1549,1550,1551,1552,1553,1554,1555,1556,1557,1558,1559,1560,1561,1562,1563,1564,1565,1566,1567,1568,1569,1570,1571,1572,1573,1574,1575,1576,1577,1578,1579,1580,1581,1582,1583,1584,1585,1586,1587,1588,1589,1590,1591,1592,1593,1594,1595,1596,1597,1598,1599,1600,1601,1602,1603,1604,1605,1606,1607,1608,1609,1610,1611,1612,1613,1614,1615,1616,1617,1618,1619,1620,1621,1622,1623,1624,1625,1626,1627,1628,1629,1630,1631,1632,1633,1634,1635,1636,1637,1638,1639,1640,1641,1642,1643,1644,1645,1646,1647,1648,1649,1650,1651,1652,1653,1654,1655,1656,1657,1658,1659,1660,1661,1662,1663,1664,1665,1666,1667,1668,1669,1670,1671,1672,1673,1674,1675,1676,1677,1678,1679,1680,1681,1682,1683,1684,1685,1686,1687,1688,1689,1690,1691,1692,1693,1694,1695,1696,1697,1698,1699,1700,1701,1702,1703,1704,1705,1706,1707,1708,1709,1710,1711,1712,1713,1714,1715,1716,1717,1718,1719,1720,1721,1722,1723,1724,1725,1726,1727,1728,1729,1730,1731,1732,1733,1734,1735,1736,1737,1738,1739,1740,1741,1742,1743,1744,1745,1746,1747,1748,1749,1750,1751,1752,1753,1754,1755,1756,1757,1758,1759,1760,1761,1762,1763,1764,1765,1766,1767,1768,1769,1770,1771,1772,1773,1774,1775,1776,1777,1778,1779,1780,1781,1782,1783,1784,1785,1786,1787,1788,1789,1790,1791,1792,1793,1794,1795,1796,1797,1798,1799,1800,1801,1802,1803,1804,1805,1806,1807,1808,1809,1810,1811,1812,1813,1814,1815,1816,1817,1818,1819,1820,1821,1822,1823,1824,1825,1826,1827,1828,1829,1830,1831,1832,1833,1834,1835,1836,1837,1838,1839,1840,1841,1842,1843,1844,1845,1846,1847,1848,1849,1850,1851,1852,1853,1854,1855,1856,1857,1858,1859,1860,1861,1862,1863,1864,1865,1866,1867,1868,1869,1870,1871,1872,1873,1874,1875,1876,1877,1878,1879,1880,1881,1882,1883,1884,1885,1886,1887,1888,1889,1890,1891,1892,1893,1894,1895,1896,1897,1898,1899,1900,1901,1902,1903,1904,1905,1906,1907,1908,1909,1910,1911,1912,1913,1914,1915,1916,1917,1918,1919,1920,1921,1922,1923,1924,1925,1926,1927,1928,1929,1930,1931,1932,1933,1934,1935,1936,1937,1938,1939,1940,1941,1942,1943,1944,1945,1946,1947,1948,1949,1950,1951,1952,1953,1954,1955,1956,1957,1958,1959,1960,1961,1962,1963,1964,1965,1966,1967,1968,1969,1970,1971,1972,1973,1974,1975,1976,1977,1978,1979,1980,1981,1982,1983,1984,1985,1986,1987,1988,1989,1990,1991,1992,1993,1994,1995,1996,1997,1998,1999,2000,2001,2002,2003,2004,2005,2006,2007,2008,2009,2010,2011,2012,2013,2014,2015,2016,2017,2018,2019,2020,2021,2022,2023,2024,2025,2026,2027,2028,2029,2030,2031,2032,2033,2034,2035,2036,2037,2038,2039,2040,2041,2042,2043,2044,2045,2046,2047,2048,2049,2050,2051,2052,2053,2054,2055,2056,2057,2058,2059,2060,2061,2062,2063,2064,2065,2066,2067,2068,2069,2070,2071,2072,2073,2074,2075,2076,2077,2078,2079,2080,2081,2082,2083,2084,2085,2086,2087,2088,2089,2090,2091,2092,2093,2094,2095,2096,2097,2098,2099,2100,2101,2102,2103,2104,2105,2106,2107,2108,2109,2110,2111,2112,2113,2114,2115,2116,2117,2118,2119,2120,2121,2122,2123,2124,2125,2126,2127,2128,2129,2130,2131,2132,2133,2134,2135,2136,2137,2138,2139,2140,2141,2142,2143,2144,2145,2146,2147,2148,2149,2150,2151,2152,2153,2154,2155,2156,2157,2158,2159,2160,2161,2162,2163,2164,2165,2166,2167,2168,2169,2170,2171,2172,2173,2174,2175,2176,2177,2178,2179,2180,2181,2182,2183,2184,2185,2186,2187,2188,2189,2190,2191,2192,2193,2194,2195,2196,2197,2198,2199,2200,2201,2202,2203,2204,2205,2206,2207,2208,2209,2210,2211,2212,2213,2214,2215,2216,2217,2218,2219,2220,2221,2222,2223,2224,2225,2226,2227,2228,2229,2230,2231,2232,2233,2234,2235,2236,2237,2238,2239,2240,2241,2242,2243,2244,2245,2246,2247,2248,2249,2250,2251,2252,2253,2254,2255,2256,2257,2258,2259,2260,2261,2262,2263,2264,2265,2266,2267,2268,2269,2270,2271,2272,2273,2274,2275,2276,2277,2278,2279,2280,2281,2282,2283,2284,2285,2286,2287,2288,2289,2290,2291,2292,2293,2294,2295,2296,2297,2298,2299,2300,2301,2302,2303,2304,2305,2306,2307,2308,2309,2310,2311,2312,2313,2314,2315,2316,2317,2318,2319,2320,2321,2322,2323,2324,2325,2326,2327,2328,2329,2330,2331,2332,2333,2334,2335,2336,2337,2338,2339,2340,2341,2342,2343,2344,2345,2346,2347,2348,2349,2350,2351,2352,2353,2354,2355,2356,2357,2358,2359,2360,2361,2362,2363,2364,2365,2366,2367,2368,2369,2370,2371,2372,2373,2374,2375,2376,2377,2378,2379,2380,2381,2382,2383,2384,2385,2386,2387,2388,2389,2390,2391,2392,2393,2394,2395,2396,2397,2398,2399,2400,2401,2402,2403,2404,2405,2406,2407,2408,2409,2410,2411,2412,2413,2414,2415,2416,2417,2418,2419,2420,2421,2422,2423,2424,2425,2426,2427,2428,2429,2430,2431,2432,2433,2434,2435,2436,2437,2438,2439,2440,2441,2442,2443,2444,2445,2446,2447,2448,2449,2450,2451,2452,2453,2454,2455,2456,2457,2458,2459,2460,2461,2462,2463,2464,2465,2466,2467,2468,2469,2470,2471,2472,2473,2474,2475,2476,2477,2478,2479,2480,2481,2482,2483,2484,2485,2486,2487,2488,2489,2490,2491,2492,2493,2494,2495,2496,2497,2498,2499,2500,2501,2502,2503,2504,2505,2506,2507,2508,2509,2510,2511,2512,2513,2514,2515,2516,2517,2518,2519,2520,2521,2522,2523,2524,2525,2526,2527,2528,2529,2530,2531,2532,2533,2534,2535,2536,2537,2538,2539,2540,2541,2542,2543,2544,2545,2546,2547,2548,2549,2550,2551,2552,2553,2554,2555,2556,2557,2558,2559,2560,2561,2562,2563,2564,2565,2566,2567,2568,2569,2570,2571,2572,2573,2574,2575,2576,2577,2578,2579,2580,2581,2582,2583,2584,2585,2586,2587,2588,2589,2590,2591,2592,2593,2594,2595,2596,2597,2598,2599,2600,2601,2602,2603,2604,2605,2606,2607,2608,2609,2610,2611,2612,2613,2614,2615,2616,2617,2618,2619,2620,2621,2622,2623,2624,2625,2626,2627,2628,2629,2630,2631,2632,2633,2634,2635,2636,2637,2638,2639,2640,2641,2642,2643,2644,2645,2646,2647,2648,2649,2650,2651,2652,2653,2654,2655,2656,2657,2658,2659,2660,2661,2662,2663,2664,2665,2666,2667,2668,2669,2670,2671,2672,2673,2674,2675,2676,2677,2678,2679,2680,2681,2682,2683,2684,2685,2686,2687,2688,2689,2690,2691,2692,2693,2694,2695,2696,2697,2698,2699,2700,2701,2702,2703,2704,2705,2706,2707,2708,2709,2710,2711,2712,2713,2714,2715,2716,2717,2718,2719,2720,2721,2722,2723,2724,2725,2726,2727,2728,2729,2730,2731,2732,2733,2734,2735,2736,2737,2738,2739,2740,2741,2742,2743,2744,2745,2746,2747,2748,2749,2750,2751,2752,2753,2754,2755,2756,2757,2758,2759,2760,2761,2762,2763,2764,2765,2766,2767,2768,2769,2770,2771,2772,2773,2774,2775,2776,2777,2778,2779,2780,2781,2782,2783,2784,2785,2786,2787,2788,2789,2790,2791,2792,2793,2794,2795,2796,2797,2798,2799,2800,2801,2802,2803,2804,2805,2806,2807,2808,2809,2810,2811,2812,2813,2814,2815,2816,2817,2818,2819,2820,2821,2822,2823,2824,2825,2826,2827,2828,2829,2830,2831,2832,2833,2834,2835,2836,2837,2838,2839,2840,2841,2842,2843,2844,2845,2846,2847,2848,2849,2850,2851,2852,2853,2854,2855,2856,2857,2858,2859,2860,2861,2862,2863,2864,2865,2866,2867,2868,2869,2870,2871,2872,2873,2874,2875,2876,2877,2878,2879,2880,2881,2882,2883,2884,2885,2886,2887,2888,2889,2890,2891,2892,2893,2894,2895,2896,2897,2898,2899,2900,2901,2902,2903,2904,2905,2906,2907,2908,2909,2910,2911,2912,2913,2914,2915,2916,2917,2918,2919,2920,2921,2922,2923,2924,2925,2926,2927,2928,2929,2930,2931,2932,2933,2934,2935,2936,2937,2938,2939,2940,2941,2942,2943,2944,2945,2946,2947,2948,2949,2950,2951,2952,2953,2954,2955,2956,2957,2958,2959,2960,2961,2962,2963,2964,2965,2966,2967,2968,2969,2970,2971,2972,2973,2974,2975,2976,2977,2978,2979,2980,2981,2982,2983,2984,2985,2986,2987,2988,2989,2990,2991,2992,2993,2994,2995,2996,2997,2998,2999,3000,3001,3002,3003,3004,3005,3006,3007,3008,3009,3010,3011,3012,3013,3014,3015,3016,3017,3018,3019,3020,3021,3022,3023,3024,3025,3026,3027,3028,3029,3030,3031,3032,3033,3034,3035,3036,3037,3038,3039,3040,3041,3042,3043,3044,3045,3046,3047,3048,3049,3050,3051,3052,3053,3054,3055,3056,3057,3058,3059,3060,3061,3062,3063,3064,3065,3066,3067,3068,3069,3070,3071,3072,3073,3074,3075,3076,3077,3078,3079,3080,3081,3082,3083,3084,3085,3086,3087,3088,3089,3090,3091,3092,3093,3094,3095,3096,3097,3098,3099,3100,3101,3102,3103,3104,3105,3106,3107,3108,3109,3110,3111,3112,3113,3114,3115,3116,3117,3118,3119,3120,3121,3122,3123,3124,3125,3126,3127,3128,3129,3130,3131,3132,3133,3134,3135,3136,3137,3138,3139,3140,3141,3142,3143,3144,3145,3146,3147,3148,3149,3150,3151,3152,3153,3154,3155,3156,3157,3158,3159,3160,3161,3162,3163,3164,3165,3166,3167,3168,3169,3170,3171,3172,3173,3174,3175,3176,3177,3178,3179,3180,3181,3182,3183,3184,3185,3186,3187,3188,3189,3190,3191,3192,3193,3194,3195,3196,3197,3198,3199,3200,3201,3202,3203,3204,3205,3206,3207,3208,3209,3210,3211,3212,3213,3214,3215,3216,3217,3218,3219,3220,3221,3222,3223,3224,3225,3226,3227,3228,3229,3230,3231,3232,3233,3234,3235,3236,3237,3238,3239,3240,3241,3242,3243,3244,3245,3246,3247,3248,3249,3250,3251,3252,3253,3254,3255,3256,3257,3258,3259,3260,3261,3262,3263,3264,3265,3266,3267,3268,3269,3270,3271,3272,3273,3274,3275,3276,3277,3278,3279,3280,3281,3282,3283,3284,3285,3286,3287,3288,3289,3290,3291,3292,3293,3294,3295,3296,3297,3298,3299,3300,3301,3302,3303,3304,3305,3306,3307,3308,3309,3310,3311,3312,3313,3314,3315,3316,3317,3318,3319,3320,3321,3322,3323,3324,3325,3326,3327,3328,3329,3330,3331,3332,3333,3334,3335,3336,3337,3338,3339,3340,3341,3342,3343,3344,3345,3346,3347,3348,3349,3350,3351,3352,3353,3354,3355,3356,3357,3358,3359,3360,3361,3362,3363,3364,3365,3366,3367,3368,3369,3370,3371,3372,3373,3374,3375,3376,3377,3378,3379,3380,3381,3382,3383,3384,3385,3386,3387,3388,3389,3390,3391,3392,3393,3394,3395,3396,3397,3398,3399,3400,3401,3402,3403,3404,3405,3406,3407,3408,3409,3410,3411,3412,3413,3414,3415,3416,3417,3418,3419,3420,3421,3422,3423,3424,3425,3426,3427,3428,3429,3430,3431,3432,3433,3434,3435,3436,3437,3438,3439,3440,3441,3442,3443,3444,3445,3446,3447,3448,3449,3450,3451,3452,3453,3454,3455,3456,3457,3458,3459,3460,3461,3462,3463,3464,3465,3466,3467,3468,3469,3470,3471,3472,3473,3474,3475,3476,3477,3478,3479,3480,3481,3482,3483,3484,3485,3486,3487,3488,3489,3490,3491,3492,3493,3494,3495,3496,3497,3498,3499,3500,3501,3502,3503,3504,3505,3506,3507,3508,3509,3510,3511,3512,3513,3514,3515,3516,3517,3518,3519,3520,3521,3522,3523,3524,3525,3526,3527,3528,3529,3530,3531,3532,3533,3534,3535,3536,3537,3538,3539,3540,3541,3542,3543,3544,3545,3546,3547,3548,3549,3550,3551,3552,3553,3554,3555,3556,3557,3558,3559,3560,3561,3562,3563,3564,3565,3566,3567,3568,3569,3570,3571,3572,3573,3574,3575,3576,3577,3578,3579,3580,3581,3582,3583,3584,3585,3586,3587,3588,3589,3590,3591,3592,3593,3594,3595,3596,3597,3598,3599,3600,3601,3602,3603,3604,3605,3606,3607,3608,3609,3610,3611,3612,3613,3614,3615,3616,3617,3618,3619,3620,3621,3622,3623,3624,3625,3626,3627,3628,3629,3630,3631,3632,3633,3634,3635,3636,3637,3638,3639,3640,3641,3642,3643,3644,3645,3646,3647,3648,3649,3650,3651,3652,3653,3654,3655,3656,3657,3658,3659,3660,3661,3662,3663,3664,3665,3666,3667,3668,3669,3670,3671,3672,3673,3674,3675,3676,3677,3678,3679,3680,3681,3682,3683,3684,3685,3686,3687,3688,3689,3690,3691,3692,3693,3694,3695,3696,3697,3698,3699,3700,3701,3702,3703,3704,3705,3706,3707,3708,3709,3710,3711,3712,3713,3714,3715,3716,3717,3718,3719,3720,3721,3722,3723,3724,3725,3726,3727,3728,3729,3730,3731,3732,3733,3734,3735,3736,3737,3738,3739,3740,3741,3742,3743,3744,3745,3746,3747,3748,3749,3750,3751,3752,3753,3754,3755,3756,3757,3758,3759,3760,3761,3762,3763,3764,3765,3766,3767,3768,3769,3770,3771,3772,3773,3774,3775,3776,3777,3778,3779,3780,3781,3782,3783,3784,3785,3786,3787,3788,3789,3790,3791,3792,3793,3794,3795,3796,3797,3798,3799,3800,3801,3802,3803,3804,3805,3806,3807,3808,3809,3810,3811,3812,3813,3814,3815,3816,3817,3818,3819,3820,3821,3822,3823,3824,3825,3826,3827,3828,3829,3830,3831,3832,3833,3834,3835,3836,3837,3838,3839,3840,3841,3842,3843,3844,3845,3846,3847,3848,3849,3850,3851,3852,3853,3854,3855,3856,3857,3858,3859,3860,3861,3862,3863,3864,3865,3866,3867,3868,3869,3870,3871,3872,3873,3874,3875,3876,3877,3878,3879,3880,3881,3882,3883,3884,3885,3886,3887,3888,3889,3890,3891,3892,3893,3894,3895,3896,3897,3898,3899,3900,3901,3902,3903,3904,3905,3906,3907,3908,3909,3910,3911,3912,3913,3914,3915,3916,3917,3918,3919,3920,3921,3922,3923,3924,3925,3926,3927,3928,3929,3930,3931,3932,3933,3934,3935,3936,3937,3938,3939,3940,3941,3942,3943,3944,3945,3946,3947,3948,3949,3950,3951,3952,3953,3954,3955,3956,3957,3958,3959,3960,3961,3962,3963,3964,3965,3966,3967,3968,3969,3970,3971,3972,3973,3974,3975,3976,3977,3978,3979,3980,3981,3982,3983,3984,3985,3986,3987,3988,3989,3990,3991,3992,3993,3994,3995,3996,3997,3998,3999,4000,4001,4002,4003,4004,4005,4006,4007,4008,4009,4010,4011,4012,4013,4014,4015,4016,4017,4018,4019,4020,4021,4022,4023,4024,4025,4026,4027,4028,4029,4030,4031,4032,4033,4034,4035,4036,4037,4038,4039,4040,4041,4042,4043,4044,4045,4046,4047,4048,4049,4050,4051,4052,4053,4054,4055,4056,4057,4058,4059,4060,4061,4062,4063,4064,4065,4066,4067,4068,4069,4070,4071,4072,4073,4074,4075,4076,4077,4078,4079,4080,4081,4082,4083,4084,4085,4086,4087,4088,4089,4090,4091,4092,4093,4094,4095,4096,4097,4098,4099,4100,4101,4102,4103,4104,4105,4106,4107,4108,4109,4110,4111,4112,4113,4114,4115,4116,4117,4118,4119,4120,4121,4122,4123,4124,4125,4126,4127,4128,4129,4130,4131,4132,4133,4134,4135,4136,4137,4138,4139,4140,4141,4142,4143,4144,4145,4146,4147,4148,4149,4150,4151,4152,4153,4154,4155,4156,4157,4158,4159,4160,4161,4162,4163,4164,4165,4166,4167,4168,4169,4170,4171,4172,4173,4174,4175,4176,4177,4178,4179,4180,4181,4182,4183,4184,4185,4186,4187,4188,4189,4190,4191,4192,4193,4194,4195,4196,4197,4198,4199,4200,4201,4202,4203,4204,4205,4206,4207,4208,4209,4210,4211,4212,4213,4214,4215,4216,4217,4218,4219,4220,4221,4222,4223,4224,4225,4226,4227,4228,4229,4230,4231,4232,4233,4234,4235,4236,4237,4238,4239,4240,4241,4242,4243,4244,4245,4246,4247,4248,4249,4250,4251,4252,4253,4254,4255,4256,4257,4258,4259,4260,4261,4262,4263,4264,4265,4266,4267,4268,4269,4270,4271,4272,4273,4274,4275,4276,4277,4278,4279,4280,4281,4282,4283,4284,4285,4286,4287,4288,4289,4290,4291,4292,4293,4294,4295,4296,4297,4298,4299,4300,4301,4302,4303,4304,4305,4306,4307,4308,4309,4310,4311,4312,4313,4314,4315,4316,4317,4318,4319,4320,4321,4322,4323,4324,4325,4326,4327,4328,4329,4330,4331,4332,4333,4334,4335,4336,4337,4338,4339,4340,4341,4342,4343,4344,4345,4346,4347,4348,4349,4350,4351,4352,4353,4354,4355,4356,4357,4358,4359,4360,4361,4362,4363,4364,4365,4366,4367,4368,4369,4370,4371,4372,4373,4374,4375,4376,4377,4378,4379,4380,4381,4382,4383,4384,4385,4386,4387,4388,4389,4390,4391,4392,4393,4394,4395,4396,4397,4398,4399,4400,4401,4402,4403,4404,4405,4406,4407,4408,4409,4410,4411,4412,4413,4414,4415,4416,4417,4418,4419,4420,4421,4422,4423,4424,4425,4426,4427,4428,4429,4430,4431,4432,4433,4434,4435,4436,4437,4438,4439,4440,4441,4442,4443,4444,4445,4446,4447,4448,4449,4450,4451,4452,4453,4454,4455,4456,4457,4458,4459,4460,4461,4462,4463,4464,4465,4466,4467,4468,4469,4470,4471,4472,4473,4474,4475,4476,4477,4478,4479,4480,4481,4482,4483,4484,4485,4486,4487,4488,4489,4490,4491,4492,4493,4494,4495,4496,4497,4498,4499,4500,4501,4502,4503,4504,4505,4506,4507,4508,4509,4510,4511,4512,4513,4514,4515,4516,4517,4518,4519,4520,4521,4522,4523,4524,4525,4526,4527,4528,4529,4530,4531,4532,4533,4534,4535,4536,4537,4538,4539,4540,4541,4542,4543,4544,4545,4546,4547,4548,4549,4550,4551,4552,4553,4554,4555,4556,4557,4558,4559,4560,4561,4562,4563,4564,4565,4566,4567,4568,4569,4570,4571,4572,4573,4574,4575,4576,4577,4578,4579,4580,4581,4582,4583,4584,4585,4586,4587,4588,4589,4590,4591,4592,4593,4594,4595,4596,4597,4598,4599,4600,4601,4602,4603,4604,4605,4606,4607,4608,4609,4610,4611,4612,4613,4614,4615,4616,4617,4618,4619,4620,4621,4622,4623,4624,4625,4626,4627,4628,4629,4630,4631,4632,4633,4634,4635,4636,4637,4638,4639,4640,4641,4642,4643,4644,4645,4646,4647,4648,4649,4650,4651,4652,4653,4654,4655,4656,4657,4658,4659,4660,4661,4662,4663,4664,4665,4666,4667,4668,4669,4670,4671,4672,4673,4674,4675,4676,4677,4678,4679,4680,4681,4682,4683,4684,4685,4686,4687,4688,4689,4690,4691,4692,4693,4694,4695,4696,4697,4698,4699,4700,4701,4702,4703,4704,4705,4706,4707,4708,4709,4710,4711,4712,4713,4714,4715,4716,4717,4718,4719,4720,4721,4722,4723,4724,4725,4726,4727,4728,4729,4730,4731,4732,4733,4734,4735,4736,4737,4738,4739,4740,4741,4742,4743,4744,4745,4746,4747,4748,4749,4750,4751,4752,4753,4754,4755,4756,4757,4758,4759,4760,4761,4762,4763,4764,4765,4766,4767,4768,4769,4770,4771,4772,4773,4774,4775,4776,4777,4778,4779,4780,4781,4782,4783,4784,4785,4786,4787,4788,4789,4790,4791,4792,4793,4794,4795,4796,4797,4798,4799,4800,4801,4802,4803,4804,4805,4806,4807,4808,4809,4810,4811,4812,4813,4814,4815,4816,4817,4818,4819,4820,4821,4822,4823,4824,4825,4826,4827,4828,4829,4830,4831,4832,4833,4834,4835,4836,4837,4838,4839,4840,4841,4842,4843,4844,4845,4846,4847,4848,4849,4850,4851,4852,4853,4854,4855,4856,4857,4858,4859,4860,4861,4862,4863,4864,4865,4866,4867,4868,4869,4870,4871,4872,4873,4874,4875,4876,4877,4878,4879,4880,4881,4882,4883,4884,4885,4886,4887,4888,4889,4890,4891,4892,4893,4894,4895,4896,4897,4898,4899,4900,4901,4902,4903,4904,4905,4906,4907,4908,4909,4910,4911,4912,4913,4914,4915,4916,4917,4918,4919,4920,4921,4922,4923,4924,4925,4926,4927,4928,4929,4930,4931,4932,4933,4934,4935,4936,4937,4938,4939,4940,4941,4942,4943,4944,4945,4946,4947,4948,4949,4950,4951,4952,4953,4954,4955,4956,4957,4958,4959,4960,4961,4962,4963,4964,4965,4966,4967,4968,4969,4970,4971,4972,4973,4974,4975,4976,4977,4978,4979,4980,4981,4982,4983,4984,4985,4986,4987,4988,4989,4990,4991,4992,4993,4994,4995,4996,4997,4998,4999
1105.868,1105.87,1105.872,1105.874,1105.88,1105.882,1105.884,1105.923,1105.926,1105.928,1105.93,1105.933,1105.935,1105.937,1105.98,1105.982,1105.984,1105.987,1105.989,1105.991,1105.995,1106.034,1106.036,1106.038,1106.041,1106.043,1106.045,1106.049,1106.091,1106.093,1106.095,1106.099,1106.101,1106.103,1106.109,1106.149,1106.151,1106.155,1106.157,1106.159,1106.164,1106.166,1106.208,1106.213,1106.215,1106.217,1106.222,1106.224,1106.226,1106.266,1106.271,1106.273,1106.275,1106.279,1106.281,1106.283,1106.325,1106.33,1106.332,1106.334,1106.337,1106.339,1106.341,1106.382,1106.385,1106.387,1106.389,1106.392,1106.394,1106.396,1106.439,1106.443,1106.445,1106.447,1106.453,1106.455,1106.457,1106.496,1106.501,1106.503,1106.505,1106.509,1106.511,1106.513,1106.554,1106.556,1106.558,1106.56,1106.563,1106.565,1106.567,1106.608,1106.612,1106.614,1106.616,1106.62,1106.622,1106.624,1106.666,1106.669,1106.671,1106.673,1106.676,1106.678,1106.68,1106.72,1106.725,1106.727,1106.729,1106.732,1106.734,1106.736,1106.777,1106.782,1106.784,1106.786,1106.789,1106.791,1106.793,1106.83,1106.835,1106.837,1106.839,1106.843,1106.845,1106.847,1106.889,1106.891,1106.893,1106.895,1106.899,1106.901,1106.904,1106.942,1106.946,1106.948,1106.95,1106.954,1106.956,1106.958,1106.998,1107.001,1107.003,1107.005,1107.008,1107.01,1107.012,1107.054,1107.06,1107.062,1107.064,1107.068,1107.07,1107.072,1107.114,1107.12,1107.122,1107.124,1107.127,1107.129,1107.131,1107.174,1107.178,1107.18,1107.182,1107.188,1107.19,1107.192,1107.234,1107.239,1107.241,1107.243,1107.246,1107.248,1107.25,1107.291,1107.296,1107.298,1107.3,1107.306,1107.308,1107.31,1107.35,1107.355,1107.357,1107.359,1107.363,1107.365,1107.367,1107.408,1107.412,1107.414,1107.416,1107.42,1107.422,1107.424,1107.463,1107.466,1107.468,1107.47,1107.474,1107.476,1107.479,1107.519,1107.522,1107.524,1107.526,1107.531,1107.533,1107.535,1107.575,1107.577,1107.579,1107.581,1107.584,1107.586,1107.588,1107.63,1107.635,1107.637,1107.639,1107.642,1107.644,1107.646,1107.689,1107.692,1107.694,1107.696,1107.701,1107.703,1107.705,1107.746,1107.749,1107.751,1107.753,1107.757,1107.759,1107.761,1107.801,1107.805,1107.807,1107.809,1107.815,1107.817,1107.819,1107.859,1107.863,1107.865,1107.867,1107.871,1107.873,1107.875,1107.916,1107.919,1107.921,1107.923,1107.927,1107.929,1107.931,1107.971,1107.974,1107.976,1107.978,1107.981,1107.983,1107.985,1108.028,1108.033,1108.035,1108.037,1108.039,1108.042,1108.044,1108.082,1108.087,1108.089,1108.091,1108.095,1108.097,1108.099,1108.14,1108.144,1108.146,1108.148,1108.152,1108.154,1108.156,1108.199,1108.204,1108.206,1108.208,1108.211,1108.213,1108.215,1108.256,1108.261,1108.263,1108.265,1108.268,1108.27,1108.272,1108.316,1108.32,1108.322,1108.324,1108.328,1108.33,1108.332,1108.375,1108.38,1108.382,1108.384,1108.387,1108.389,1108.391,1108.433,1108.439,1108.441,1108.443,1108.446,1108.448,1108.45,1108.492,1108.497,1108.499,1108.501,1108.504,1108.506,1108.508,1108.548,1108.55,1108.552,1108.554,1108.557,1108.559,1108.561,1108.605,1108.609,1108.611,1108.613,1108.617,1108.619,1108.621,1108.662,1108.664,1108.666,1108.671,1108.673,1108.675,1108.679,1108.722,1108.724,1108.726,1108.73,1108.732,1108.734,1108.738,1108.775,1108.777,1108.779,1108.782,1108.784,1108.786,1108.79,1108.829,1108.831,1108.833,1108.836,1108.838,1108.84,1108.844,1108.882,1108.884,1108.886,1108.889,1108.891,1108.893,1108.897,1108.939,1108.941,1108.943,1108.946,1108.948,1108.95,1108.954,1108.993,1108.995,1109.0,1109.002,1109.004,1109.008,1109.01,1109.051,1109.056,1109.058,1109.06,1109.064,1109.066,1109.068,1109.114,1109.116,1109.118,1109.122,1109.124,1109.126,1109.13,1109.171,1109.173,1109.175,1109.177,1109.18,1109.182,1109.184,1109.225,1109.227,1109.229,1109.232,1109.234,1109.236,1109.238,1109.282,1109.284,1109.286,1109.288,1109.292,1109.294,1109.296,1109.337,1109.341,1109.343,1109.345,1109.349,1109.351,1109.353,1109.394,1109.398,1109.4,1109.402,1109.405,1109.407,1109.409,1109.45,1109.452,1109.454,1109.457,1109.459,1109.461,1109.463,1109.503,1109.509,1109.511,1109.513,1109.516,1109.518,1109.52,1109.561,1109.563,1109.565,1109.568,1109.57,1109.572,1109.576,1109.611,1109.613,1109.615,1109.617,1109.619,1109.621,1109.625,1109.664,1109.666,1109.668,1109.671,1109.673,1109.675,1109.678,1109.719,1109.721,1109.723,1109.726,1109.728,1109.73,1109.734,1109.774,1109.779,1109.781,1109.783,1109.787,1109.789,1109.791,1109.833,1109.838,1109.84,1109.842,1109.845,1109.847,1109.849,1109.89,1109.893,1109.895,1109.897,1109.9,1109.902,1109.904,1109.946,1109.951,1109.953,1109.955,1109.959,1109.961,1109.963,1110.004,1110.006,1110.008,1110.01,1110.012,1110.014,1110.019,1110.059,1110.065,1110.067,1110.069,1110.072,1110.074,1110.076,1110.115,1110.12,1110.122,1110.124,1110.128,1110.13,1110.132,1110.173,1110.175,1110.177,1110.181,1110.183,1110.185,1110.188,1110.229,1110.231,1110.233,1110.236,1110.238,1110.24,1110.244,1110.284,1110.286,1110.288,1110.29,1110.293,1110.295,1110.297,1110.337,1110.342,1110.344,1110.346,1110.352,1110.354,1110.356,1110.397,1110.399,1110.401,1110.403,1110.406,1110.408,1110.41,1110.451,1110.457,1110.459,1110.461,1110.464,1110.466,1110.468,1110.509,1110.511,1110.513,1110.515,1110.518,1110.52,1110.522,1110.562,1110.565,1110.567,1110.569,1110.575,1110.577,1110.579,1110.621,1110.623,1110.625,1110.628,1110.63,1110.632,1110.636,1110.678,1110.68,1110.682,1110.685,1110.687,1110.689,1110.694,1110.734,1110.736,1110.738,1110.741,1110.743,1110.745,1110.749,1110.789,1110.791,1110.793,1110.797,1110.799,1110.801,1110.804,1110.844,1110.846,1110.849,1110.851,1110.853,1110.857,1110.859,1110.901,1110.907,1110.909,1110.911,1110.915,1110.917,1110.919,1110.962,1110.967,1110.969,1110.971,1110.974,1110.976,1110.978,1111.02,1111.024,1111.026,1111.028,1111.031,1111.033,1111.035,1111.074,1111.079,1111.081,1111.083,1111.086,1111.088,1111.09,1111.133,1111.136,1111.138,1111.14,1111.144,1111.146,1111.148,1111.19,1111.195,1111.197,1111.199,1111.205,1111.207,1111.209,1111.247,1111.252,1111.254,1111.256,1111.259,1111.261,1111.263,1111.306,1111.31,1111.312,1111.314,1111.318,1111.32,1111.322,1111.363,1111.365,1111.367,1111.369,1111.372,1111.374,1111.376,1111.419,1111.423,1111.425,1111.427,1111.431,1111.433,1111.435,1111.478,1111.484,1111.486,1111.488,1111.491,1111.493,1111.495,1111.536,1111.539,1111.541,1111.543,1111.547,1111.549,1111.551,1111.592,1111.597,1111.599,1111.601,1111.604,1111.606,1111.608,1111.65,1111.653,1111.655,1111.657,1111.66,1111.662,1111.664,1111.704,1111.709,1111.711,1111.713,1111.717,1111.719,1111.721,1111.763,1111.767,1111.769,1111.771,1111.774,1111.776,1111.778,1111.819,1111.824,1111.826,1111.828,1111.831,1111.833,1111.835,1111.878,1111.883,1111.885,1111.887,1111.891,1111.893,1111.895,1111.934,1111.938,1111.94,1111.942,1111.946,1111.948,1111.95,1111.989,1111.992,1111.994,1111.996,1111.999,1112.001,1112.003,1112.041,1112.047,1112.049,1112.051,1112.054,1112.056,1112.058,1112.1,1112.104,1112.106,1112.108,1112.112,1112.114,1112.116,1112.157,1112.162,1112.164,1112.166,1112.169,1112.171,1112.173,1112.215,1112.217,1112.219,1112.221,1112.224,1112.226,1112.228,1112.269,1112.274,1112.276,1112.278,1112.281,1112.283,1112.285,1112.327,1112.329,1112.331,1112.333,1112.337,1112.339,1112.341,1112.382,1112.387,1112.389,1112.391,1112.394,1112.396,1112.398,1112.439,1112.443,1112.445,1112.447,1112.451,1112.453,1112.455,1112.499,1112.501,1112.503,1112.505,1112.51,1112.512,1112.514,1112.556,1112.56,1112.562,1112.564,1112.57,1112.572,1112.574,1112.613,1112.615,1112.617,1112.619,1112.622,1112.624,1112.626,1112.664,1112.667,1112.669,1112.671,1112.675,1112.677,1112.679,1112.721,1112.723,1112.725,1112.727,1112.729,1112.731,1112.733,1112.777,1112.781,1112.783,1112.785,1112.789,1112.791,1112.793,1112.836,1112.841,1112.843,1112.845,1112.848,1112.85,1112.852,1112.893,1112.896,1112.898,1112.9,1112.904,1112.906,1112.908,1112.951,1112.955,1112.957,1112.959,1112.962,1112.964,1112.966,1113.011,1113.016,1113.018,1113.02,1113.023,1113.025,1113.027,1113.069,1113.073,1113.075,1113.077,1113.081,1113.083,1113.085,1113.126,1113.13,1113.132,1113.134,1113.14,1113.142,1113.144,1113.182,1113.184,1113.186,1113.188,1113.191,1113.193,1113.195,1113.234,1113.236,1113.238,1113.24,1113.244,1113.246,1113.248,1113.287,1113.289,1113.291,1113.295,1113.297,1113.299,1113.304,1113.344,1113.346,1113.348,1113.351,1113.353,1113.355,1113.359,1113.398,1113.4,1113.402,1113.405,1113.407,1113.409,1113.412,1113.454,1113.456,1113.458,1113.461,1113.463,1113.465,1113.469,1113.511,1113.513,1113.515,1113.518,1113.52,1113.522,1113.526,1113.567,1113.569,1113.571,1113.574,1113.576,1113.578,1113.582,1113.622,1113.624,1113.626,1113.629,1113.631,1113.633,1113.636,1113.677,1113.679,1113.681,1113.684,1113.686,1113.688,1113.692,1113.729,1113.731,1113.733,1113.736,1113.738,1113.74,1113.743,1113.784,1113.786,1113.788,1113.79,1113.792,1113.794,1113.797,1113.84,1113.842,1113.844,1113.847,1113.849,1113.851,1113.855,1113.897,1113.899,1113.901,1113.904,1113.906,1113.908,1113.911,1113.951,1113.953,1113.955,1113.957,1113.959,1113.961,1113.967,1114.006,1114.008,1114.01,1114.012,1114.014,1114.016,1114.02,1114.059,1114.061,1114.063,1114.066,1114.068,1114.07,1114.074,1114.116,1114.118,1114.12,1114.124,1114.126,1114.128,1114.134,1114.176,1114.178,1114.18,1114.184,1114.186,1114.188,1114.192,1114.231,1114.233,1114.235,1114.239,1114.241,1114.243,1114.249,1114.288,1114.29,1114.292,1114.296,1114.298,1114.3,1114.304,1114.347,1114.349,1114.351,1114.354,1114.356,1114.358,1114.362,1114.404,1114.406,1114.408,1114.411,1114.413,1114.415,1114.418,1114.459,1114.461,1114.463,1114.467,1114.469,1114.471,1114.476,1114.517,1114.519,1114.521,1114.524,1114.526,1114.528,1114.532,1114.574,1114.576,1114.578,1114.581,1114.583,1114.585,1114.589,1114.628,1114.63,1114.632,1114.635,1114.637,1114.639,1114.643,1114.684,1114.686,1114.69,1114.692,1114.694,1114.7,1114.702,1114.743,1114.745,1114.747,1114.749,1114.753,1114.755,1114.757,1114.799,1114.803,1114.805,1114.807,1114.811,1114.813,1114.815,1114.855,1114.859,1114.861,1114.863,1114.867,1114.869,1114.871,1114.914,1114.918,1114.92,1114.922,1114.926,1114.928,1114.93,1114.972,1114.977,1114.979,1114.981,1114.987,1114.989,1114.991,1115.033,1115.037,1115.039,1115.041,1115.045,1115.047,1115.049,1115.091,1115.093,1115.095,1115.097,1115.101,1115.103,1115.105,1115.147,1115.151,1115.153,1115.155,1115.159,1115.161,1115.163,1115.203,1115.207,1115.209,1115.211,1115.214,1115.216,1115.218,1115.26,1115.265,1115.267,1115.269,1115.272,1115.274,1115.276,1115.319,1115.323,1115.325,1115.327,1115.331,1115.333,1115.335,1115.376,1115.38,1115.382,1115.384,1115.389,1115.391,1115.393,1115.434,1115.436,1115.438,1115.44,1115.444,1115.446,1115.448,1115.489,1115.492,1115.494,1115.496,1115.5,1115.502,1115.504,1115.545,1115.549,1115.551,1115.553,1115.556,1115.558,1115.56,1115.6,1115.603,1115.605,1115.607,1115.611,1115.613,1115.615,1115.657,1115.659,1115.661,1115.663,1115.665,1115.667,1115.671,1115.714,1115.716,1115.718,1115.721,1115.723,1115.725,1115.729,1115.768,1115.77,1115.772,1115.775,1115.777,1115.779,1115.782,1115.827,1115.829,1115.831,1115.834,1115.836,1115.838,1115.843,1115.882,1115.884,1115.886,1115.889,1115.891,1115.893,1115.899,1115.939,1115.941,1115.943,1115.946,1115.948,1115.95,1115.954,1115.993,1115.995,1115.997,1116.0,1116.002,1116.004,1116.007,1116.051,1116.053,1116.055,1116.058,1116.06,1116.062,1116.066,1116.109,1116.111,1116.113,1116.116,1116.118,1116.12,1116.124,1116.164,1116.166,1116.168,1116.171,1116.173,1116.175,1116.179,1116.221,1116.223,1116.225,1116.229,1116.231,1116.233,1116.237,1116.277,1116.279,1116.281,1116.284,1116.286,1116.288,1116.292,1116.334,1116.336,1116.338,1116.341,1116.343,1116.345,1116.349,1116.39,1116.392,1116.394,1116.398,1116.4,1116.402,1116.406,1116.443,1116.445,1116.447,1116.45,1116.452,1116.454,1116.458,1116.503,1116.505,1116.507,1116.51,1116.512,1116.514,1116.517,1116.56,1116.562,1116.564,1116.567,1116.569,1116.571,1116.576,1116.617,1116.619,1116.621,1116.623,1116.625,1116.627,1116.631,1116.674,1116.676,1116.678,1116.681,1116.683,1116.685,1116.689,1116.732,1116.734,1116.736,1116.741,1116.743,1116.745,1116.749,1116.79,1116.792,1116.794,1116.798,1116.8,1116.802,1116.805,1116.846,1116.848,1116.85,1116.854,1116.856,1116.858,1116.864,1116.906,1116.908,1116.91,1116.914,1116.916,1116.918,1116.922,1116.963,1116.965,1116.967,1116.969,1116.971,1116.973,1116.977,1117.016,1117.018,1117.02,1117.024,1117.026,1117.028,1117.031,1117.071,1117.073,1117.075,1117.079,1117.081,1117.083,1117.088,1117.126,1117.128,1117.13,1117.132,1117.134,1117.136,1117.14,1117.184,1117.186,1117.188,1117.191,1117.193,1117.195,1117.199,1117.242,1117.244,1117.246,1117.248,1117.25,1117.252,1117.255,1117.295,1117.297,1117.299,1117.302,1117.304,1117.306,1117.311,1117.354,1117.356,1117.358,1117.361,1117.363,1117.365,1117.369,1117.408,1117.41,1117.412,1117.416,1117.418,1117.42,1117.425,1117.466,1117.468,1117.47,1117.474,1117.476,1117.478,1117.481,1117.524,1117.526,1117.528,1117.531,1117.533,1117.535,1117.538,1117.581,1117.583,1117.585,1117.589,1117.591,1117.593,1117.597,1117.636,1117.638,1117.64,1117.642,1117.644,1117.646,1117.649,1117.691,1117.693,1117.695,1117.701,1117.703,1117.705,1117.709,1117.749,1117.751,1117.753,1117.756,1117.758,1117.76,1117.763,1117.806,1117.808,1117.81,1117.814,1117.816,1117.818,1117.824,1117.863,1117.865,1117.867,1117.87,1117.872,1117.874,1117.879,1117.916,1117.918,1117.92,1117.923,1117.925,1117.927,1117.931,1117.971,1117.973,1117.975,1117.979,1117.981,1117.983,1117.986,1118.026,1118.028,1118.03,1118.034,1118.036,1118.038,1118.042,1118.085,1118.087,1118.089,1118.094,1118.096,1118.098,1118.102,1118.144,1118.146,1118.148,1118.151,1118.153,1118.155,1118.159,1118.198,1118.2,1118.202,1118.205,1118.207,1118.209,1118.212,1118.253,1118.255,1118.257,1118.26,1118.262,1118.264,1118.27,1118.309,1118.311,1118.313,1118.316,1118.318,1118.32,1118.325,1118.364,1118.366,1118.368,1118.371,1118.373,1118.375,1118.378,1118.421,1118.423,1118.425,1118.429,1118.431,1118.433,1118.438,1118.479,1118.481,1118.483,1118.486,1118.488,1118.49,1118.494,1118.535,1118.537,1118.539,1118.545,1118.547,1118.549,1118.552,1118.594,1118.596,1118.598,1118.604,1118.606,1118.608,1118.611,1118.654,1118.656,1118.658,1118.664,1118.666,1118.668,1118.671,1118.715,1118.717,1118.719,1118.724,1118.726,1118.728,1118.732,1118.774,1118.776,1118.778,1118.781,1118.783,1118.785,1118.789,1118.831,1118.833,1118.835,1118.839,1118.841,1118.843,1118.847,1118.888,1118.89,1118.892,1118.896,1118.898,1118.9,1118.904,1118.947,1118.949,1118.951,1118.954,1118.956,1118.958,1118.964,1119.001,1119.003,1119.005,1119.009,1119.011,1119.013,1119.017,1119.059,1119.061,1119.063,1119.069,1119.071,1119.073,1119.076,1119.117,1119.119,1119.121,1119.124,1119.126,1119.128,1119.132,1119.174,1119.176,1119.178,1119.181,1119.183,1119.185,1119.189,1119.23,1119.232,1119.234,1119.238,1119.24,1119.242,1119.248,1119.291,1119.293,1119.295,1119.299,1119.301,1119.303,1119.308,1119.348,1119.35,1119.352,1119.356,1119.358,1119.36,1119.364,1119.407,1119.409,1119.411,1119.414,1119.416,1119.418,1119.422,1119.465,1119.467,1119.469,1119.474,1119.476,1119.478,1119.482,1119.524,1119.526,1119.528,1119.531,1119.533,1119.535,1119.54,1119.584,1119.586,1119.588,1119.591,1119.593,1119.595,1119.599,1119.64,1119.642,1119.644,1119.649,1119.651,1119.653,1119.656,1119.696,1119.698,1119.7,1119.704,1119.706,1119.708,1119.714,1119.75,1119.752,1119.754,1119.759,1119.761,1119.763,1119.766,1119.804,1119.806,1119.808,1119.811,1119.813,1119.815,1119.819,1119.861,1119.863,1119.865,1119.869,1119.871,1119.873,1119.878,1119.916,1119.918,1119.92,1119.925,1119.927,1119.929,1119.932,1119.974,1119.976,1119.978,1119.983,1119.985,1119.987,1119.991,1120.033,1120.035,1120.037,1120.043,1120.045,1120.047,1120.05,1120.091,1120.093,1120.095,1120.098,1120.1,1120.102,1120.105,1120.144,1120.147,1120.149,1120.151,1120.153,1120.155,1120.159,1120.199,1120.201,1120.203,1120.209,1120.211,1120.213,1120.216,1120.26,1120.262,1120.264,1120.268,1120.27,1120.272,1120.277,1120.319,1120.321,1120.323,1120.329,1120.331,1120.333,1120.336,1120.38,1120.382,1120.384,1120.388,1120.39,1120.392,1120.396,1120.439,1120.441,1120.443,1120.449,1120.451,1120.453,1120.456,1120.494,1120.496,1120.498,1120.501,1120.503,1120.505,1120.508,1120.549,1120.551,1120.554,1120.556,1120.558,1120.56,1120.564,1120.604,1120.606,1120.608,1120.614,1120.616,1120.618,1120.621,1120.664,1120.666,1120.668,1120.673,1120.675,1120.677,1120.681,1120.724,1120.726,1120.728,1120.733,1120.735,1120.737,1120.741,1120.783,1120.785,1120.787,1120.789,1120.792,1120.794,1120.796,1120.836,1120.838,1120.84,1120.844,1120.846,1120.848,1120.853,1120.898,1120.9,1120.902,1120.905,1120.907,1120.909,1120.914,1120.957,1120.959,1120.961,1120.964,1120.966,1120.968,1120.973,1121.013,1121.015,1121.017,1121.02,1121.022,1121.024,1121.029,1121.067,1121.069,1121.071,1121.076,1121.078,1121.08,1121.083,1121.122,1121.124,1121.126,1121.129,1121.131,1121.133,1121.138,1121.181,1121.183,1121.185,1121.189,1121.191,1121.193,1121.197,1121.238,1121.24,1121.242,1121.246,1121.248,1121.25,1121.253,1121.293,1121.295,1121.297,1121.299,1121.302,1121.304,1121.307,1121.347,1121.349,1121.351,1121.354,1121.356,1121.358,1121.363,1121.405,1121.407,1121.409,1121.412,1121.414,1121.416,1121.419,1121.46,1121.462,1121.464,1121.467,1121.469,1121.471,1121.476,1121.514,1121.516,1121.518,1121.521,1121.523,1121.525,1121.529,1121.571,1121.573,1121.575,1121.579,1121.581,1121.583,1121.588,1121.632,1121.634,1121.636,1121.639,1121.641,1121.643,1121.648,1121.689,1121.691,1121.693,1121.696,1121.698,1121.7,1121.704,1121.744,1121.746,1121.748,1121.753,1121.755,1121.757,1121.761,1121.804,1121.806,1121.808,1121.813,1121.815,1121.817,1121.821,1121.862,1121.864,1121.866,1121.871,1121.873,1121.875,1121.879,1121.921,1121.923,1121.925,1121.931,1121.933,1121.935,1121.938,1121.979,1121.981,1121.983,1121.987,1121.989,1121.991,1121.995,1122.038,1122.04,1122.042,1122.046,1122.048,1122.05,1122.053,1122.094,1122.096,1122.098,1122.1,1122.102,1122.104,1122.109,1122.15,1122.152,1122.154,1122.158,1122.16,1122.162,1122.166,1122.209,1122.211,1122.213,1122.217,1122.219,1122.221,1122.226,1122.266,1122.268,1122.27,1122.273,1122.275,1122.277,1122.28,1122.323,1122.325,1122.327,1122.33,1122.332,1122.334,1122.339,1122.382,1122.384,1122.386,1122.39,1122.392,1122.394,1122.397,1122.439,1122.441,1122.443,1122.446,1122.448,1122.45,1122.455,1122.496,1122.498,1122.5,1122.503,1122.505,1122.507,1122.511,1122.554,1122.556,1122.558,1122.561,1122.563,1122.565,1122.569,1122.612,1122.614,1122.616,1122.621,1122.623,1122.625,1122.629,1122.671,1122.673,1122.675,1122.681,1122.683,1122.685,1122.688,1122.727,1122.729,1122.731,1122.734,1122.736,1122.738,1122.74,1122.784,1122.79,1122.792,1122.794,1122.797,1122.799,1122.801,1122.843,1122.848,1122.85,1122.852,1122.855,1122.857,1122.859,1122.898,1122.901,1122.903,1122.905,1122.909,1122.911,1122.913,1122.955,1122.96,1122.962,1122.964,1122.967,1122.969,1122.971,1123.014,1123.017,1123.019,1123.021,1123.027,1123.029,1123.031,1123.071,1123.076,1123.078,1123.08,1123.086,1123.088,1123.09,1123.131,1123.133,1123.135,1123.137,1123.14,1123.142,1123.144,1123.184,1123.189,1123.191,1123.193,1123.196,1123.198,1123.2,1123.241,1123.245,1123.247,1123.249,1123.253,1123.255,1123.257,1123.3,1123.304,1123.306,1123.308,1123.31,1123.313,1123.316,1123.357,1123.359,1123.361,1123.365,1123.367,1123.369,1123.373,1123.414,1123.416,1123.418,1123.421,1123.423,1123.425,1123.429,1123.469,1123.471,1123.473,1123.477,1123.479,1123.481,1123.485,1123.527,1123.529,1123.531,1123.537,1123.539,1123.541,1123.545,1123.587,1123.589,1123.591,1123.597,1123.599,1123.601,1123.604,1123.644,1123.646,1123.648,1123.651,1123.653,1123.655,1123.659,1123.701,1123.703,1123.705,1123.709,1123.711,1123.713,1123.718,1123.763,1123.765,1123.767,1123.77,1123.772,1123.774,1123.777,1123.816,1123.818,1123.82,1123.823,1123.825,1123.827,1123.831,1123.874,1123.876,1123.878,1123.882,1123.884,1123.886,1123.89,1123.929,1123.931,1123.933,1123.936,1123.938,1123.94,1123.944,1123.986,1123.988,1123.99,1123.993,1123.995,1123.997,1124.003,1124.043,1124.045,1124.047,1124.051,1124.053,1124.055,1124.059,1124.1,1124.102,1124.104,1124.108,1124.11,1124.112,1124.116,1124.16,1124.162,1124.164,1124.167,1124.169,1124.171,1124.175,1124.217,1124.219,1124.221,1124.224,1124.226,1124.228,1124.232,1124.271,1124.273,1124.275,1124.278,1124.28,1124.282,1124.285,1124.324,1124.326,1124.328,1124.33,1124.332,1124.334,1124.338,1124.379,1124.381,1124.383,1124.387,1124.389,1124.391,1124.395,1124.438,1124.44,1124.442,1124.446,1124.448,1124.45,1124.453,1124.496,1124.498,1124.5,1124.503,1124.505,1124.507,1124.511,1124.552,1124.554,1124.556,1124.559,1124.561,1124.563,1124.567,1124.61,1124.612,1124.614,1124.617,1124.619,1124.621,1124.625,1124.663,1124.665,1124.667,1124.671,1124.673,1124.675,1124.679,1124.721,1124.723,1124.725,1124.729,1124.731,1124.733,1124.739,1124.78,1124.782,1124.784,1124.787,1124.789,1124.791,1124.795,1124.837,1124.839,1124.841,1124.844,1124.846,1124.848,1124.852,1124.896,1124.898,1124.9,1124.903,1124.905,1124.907,1124.91,1124.953,1124.955,1124.957,1124.963,1124.965,1124.967,1124.971,1125.014,1125.016,1125.018,1125.02,1125.022,1125.024,1125.027,1125.07,1125.072,1125.074,1125.077,1125.079,1125.081,1125.085,1125.128,1125.13,1125.132,1125.135,1125.137,1125.139,1125.142,1125.184,1125.186,1125.188,1125.191,1125.193,1125.195,1125.199,1125.24,1125.242,1125.244,1125.247,1125.249,1125.251,1125.255,1125.294,1125.296,1125.298,1125.301,1125.303,1125.305,1125.308,1125.351,1125.353,1125.355,1125.359,1125.361,1125.363,1125.368,1125.412,1125.414,1125.416,1125.42,1125.422,1125.424,1125.429,1125.466,1125.468,1125.47,1125.472,1125.474,1125.476,1125.48,1125.522,1125.524,1125.526,1125.532,1125.534,1125.536,1125.539,1125.579,1125.581,1125.583,1125.586,1125.588,1125.59,1125.594,1125.635,1125.637,1125.639,1125.642,1125.644,1125.646,1125.65,1125.689,1125.691,1125.693,1125.695,1125.697,1125.699,1125.702,1125.743,1125.745,1125.747,1125.752,1125.754,1125.756,1125.759,1125.799,1125.801,1125.803,1125.806,1125.808,1125.81,1125.814,1125.854,1125.856,1125.858,1125.86,1125.863,1125.865,1125.867,1125.909,1125.911,1125.913,1125.917,1125.919,1125.921,1125.925,1125.967,1125.969,1125.971,1125.974,1125.976,1125.978,1125.984,1126.025,1126.027,1126.029,1126.032,1126.034,1126.036,1126.04,1126.082,1126.084,1126.086,1126.089,1126.091,1126.093,1126.097,1126.139,1126.141,1126.143,1126.145,1126.147,1126.149,1126.152,1126.193,1126.195,1126.197,1126.201,1126.203,1126.205,1126.208,1126.249,1126.251,1126.253,1126.256,1126.258,1126.26,1126.264,1126.304,1126.306,1126.308,1126.312,1126.314,1126.316,1126.32,1126.362,1126.364,1126.366,1126.372,1126.374,1126.376,1126.379,1126.42,1126.422,1126.424,1126.427,1126.429,1126.431,1126.434,1126.477,1126.479,1126.481,1126.484,1126.486,1126.488,1126.494,1126.534,1126.536,1126.538,1126.542,1126.544,1126.546,1126.55,1126.588,1126.59,1126.592,1126.595,1126.597,1126.599,1126.602,1126.645,1126.647,1126.649,1126.652,1126.654,1126.656,1126.659,1126.702,1126.704,1126.706,1126.709,1126.711,1126.713,1126.718,1126.761,1126.763,1126.765,1126.768,1126.77,1126.772,1126.775,1126.816,1126.818,1126.82,1126.823,1126.825,1126.827,1126.831,1126.871,1126.873,1126.875,1126.878,1126.88,1126.882,1126.885,1126.924,1126.926,1126.928,1126.932,1126.934,1126.936,1126.94,1126.979,1126.981,1126.983,1126.989,1126.991,1126.993,1126.996,1127.038,1127.04,1127.042,1127.045,1127.047,1127.049,1127.052,1127.095,1127.097,1127.099,1127.102,1127.104,1127.106,1127.11,1127.149,1127.151,1127.153,1127.157,1127.159,1127.161,1127.166,1127.208,1127.21,1127.212,1127.216,1127.218,1127.22,1127.224,1127.262,1127.264,1127.266,1127.269,1127.271,1127.273,1127.276,1127.314,1127.316,1127.318,1127.321,1127.323,1127.325,1127.329,1127.37,1127.372,1127.374,1127.378,1127.38,1127.382,1127.386,1127.428,1127.43,1127.432,1127.435,1127.437,1127.439,1127.443,1127.486,1127.488,1127.49,1127.496,1127.498,1127.5,1127.503,1127.545,1127.547,1127.549,1127.553,1127.555,1127.557,1127.561,1127.603,1127.605,1127.607,1127.61,1127.612,1127.614,1127.617,1127.658,1127.66,1127.662,1127.665,1127.667,1127.669,1127.673,1127.715,1127.717,1127.719,1127.722,1127.724,1127.726,1127.73,1127.771,1127.773,1127.775,1127.778,1127.78,1127.782,1127.785,1127.827,1127.829,1127.831,1127.835,1127.837,1127.839,1127.843,1127.884,1127.886,1127.888,1127.892,1127.894,1127.896,1127.9,1127.941,1127.943,1127.945,1127.948,1127.95,1127.952,1127.956,1127.999,1128.001,1128.003,1128.007,1128.009,1128.011,1128.015,1128.059,1128.061,1128.063,1128.065,1128.067,1128.069,1128.072,1128.112,1128.114,1128.116,1128.119,1128.121,1128.123,1128.129,1128.169,1128.171,1128.173,1128.177,1128.179,1128.181,1128.185,1128.225,1128.227,1128.229,1128.232,1128.234,1128.236,1128.24,1128.283,1128.285,1128.287,1128.293,1128.295,1128.297,1128.3,1128.341,1128.343,1128.345,1128.35,1128.352,1128.354,1128.357,1128.396,1128.398,1128.4,1128.404,1128.406,1128.408,1128.414,1128.457,1128.459,1128.461,1128.464,1128.466,1128.468,1128.472,1128.513,1128.515,1128.517,1128.52,1128.522,1128.524,1128.529,1128.568,1128.57,1128.572,1128.575,1128.577,1128.579,1128.582,1128.622,1128.624,1128.626,1128.629,1128.631,1128.633,1128.637,1128.68,1128.682,1128.684,1128.687,1128.689,1128.691,1128.696,1128.735,1128.737,1128.739,1128.742,1128.744,1128.746,1128.75,1128.791,1128.793,1128.795,1128.799,1128.801,1128.803,1128.807,1128.846,1128.848,1128.85,1128.853,1128.855,1128.857,1128.862,1128.901,1128.903,1128.905,1128.908,1128.91,1128.912,1128.916,1128.96,1128.962,1128.964,1128.967,1128.969,1128.971,1128.975,1129.017,1129.019,1129.021,1129.025,1129.027,1129.029,1129.032,1129.07,1129.072,1129.074,1129.077,1129.079,1129.081,1129.085,1129.125,1129.127,1129.129,1129.133,1129.135,1129.137,1129.141,1129.183,1129.185,1129.187,1129.19,1129.192,1129.194,1129.198,1129.237,1129.239,1129.241,1129.244,1129.246,1129.248,1129.25,1129.291,1129.293,1129.295,1129.298,1129.3,1129.302,1129.306,1129.349,1129.351,1129.353,1129.357,1129.359,1129.361,1129.365,1129.404,1129.406,1129.408,1129.411,1129.413,1129.415,1129.419,1129.459,1129.461,1129.463,1129.467,1129.469,1129.471,1129.476,1129.513,1129.515,1129.517,1129.521,1129.523,1129.525,1129.529,1129.571,1129.573,1129.575,1129.581,1129.583,1129.585,1129.588,1129.631,1129.633,1129.635,1129.641,1129.643,1129.645,1129.648,1129.688,1129.69,1129.692,1129.696,1129.698,1129.7,1129.703,1129.744,1129.746,1129.748,1129.752,1129.754,1129.756,1129.761,1129.802,1129.804,1129.806,1129.809,1129.811,1129.813,1129.817,1129.86,1129.862,1129.864,1129.867,1129.869,1129.871,1129.875,1129.914,1129.916,1129.918,1129.921,1129.923,1129.925,1129.929,1129.972,1129.974,1129.976,1129.979,1129.981,1129.983,1129.989,1130.029,1130.031,1130.033,1130.037,1130.039,1130.041,1130.046,1130.087,1130.089,1130.091,1130.094,1130.096,1130.098,1130.102,1130.141,1130.143,1130.145,1130.15,1130.152,1130.154,1130.157,1130.194,1130.196,1130.198,1130.202,1130.204,1130.206,1130.209,1130.246,1130.248,1130.25,1130.253,1130.255,1130.257,1130.26,1130.3,1130.302,1130.304,1130.307,1130.309,1130.311,1130.316,1130.358,1130.36,1130.362,1130.365,1130.367,1130.369,1130.375,1130.411,1130.413,1130.415,1130.418,1130.42,1130.422,1130.425,1130.466,1130.468,1130.47,1130.474,1130.476,1130.478,1130.482,1130.524,1130.526,1130.528,1130.531,1130.533,1130.535,1130.539,1130.582,1130.584,1130.586,1130.589,1130.591,1130.593,1130.597,1130.636,1130.638,1130.64,1130.644,1130.646,1130.648,1130.652,1130.69,1130.692,1130.694,1130.697,1130.699,1130.701,1130.704,1130.741,1130.743,1130.745,1130.748,1130.75,1130.752,1130.755,1130.797,1130.799,1130.801,1130.804,1130.806,1130.808,1130.814,1130.852,1130.854,1130.856,1130.859,1130.861,1130.863,1130.867,1130.908,1130.91,1130.912,1130.918,1130.92,1130.922,1130.925,1130.969,1130.971,1130.973,1130.977,1130.979,1130.981,1130.985,1131.024,1131.026,1131.028,1131.031,1131.033,1131.035,1131.039,1131.082,1131.084,1131.086,1131.09,1131.092,1131.094,1131.1,1131.136,1131.138,1131.14,1131.143,1131.145,1131.147,1131.151,1131.193,1131.195,1131.197,1131.202,1131.204,1131.206,1131.21,1131.248,1131.25,1131.252,1131.255,1131.257,1131.259,1131.262,1131.304,1131.306,1131.308,1131.311,1131.313,1131.315,1131.319,1131.361,1131.363,1131.365,1131.369,1131.371,1131.373,1131.379,1131.416,1131.418,1131.42,1131.423,1131.425,1131.427,1131.43,1131.471,1131.473,1131.475,1131.478,1131.48,1131.482,1131.487,1131.526,1131.528,1131.53,1131.533,1131.535,1131.537,1131.541,1131.585,1131.587,1131.589,1131.592,1131.594,1131.596,1131.6,1131.643,1131.645,1131.647,1131.653,1131.655,1131.657,1131.66,1131.699,1131.701,1131.703,1131.706,1131.708,1131.71,1131.713,1131.757,1131.759,1131.761,1131.764,1131.766,1131.768,1131.773,1131.814,1131.816,1131.818,1131.822,1131.824,1131.826,1131.832,1131.874,1131.876,1131.878,1131.882,1131.884,1131.886,1131.892,1131.93,1131.932,1131.934,1131.938,1131.94,1131.942,1131.946,1131.99,1131.992,1131.994,1131.999,1132.001,1132.003,1132.007,1132.048,1132.05,1132.052,1132.057,1132.059,1132.061,1132.064,1132.107,1132.109,1132.111,1132.116,1132.118,1132.12,1132.124,1132.163,1132.165,1132.167,1132.17,1132.172,1132.174,1132.177,1132.217,1132.219,1132.221,1132.223,1132.225,1132.227,1132.231,1132.275,1132.277,1132.279,1132.284,1132.286,1132.288,1132.292,1132.337,1132.339,1132.341,1132.344,1132.346,1132.348,1132.352,1132.393,1132.395,1132.397,1132.402,1132.404,1132.406,1132.409,1132.449,1132.451,1132.453,1132.456,1132.458,1132.46,1132.463,1132.505,1132.507,1132.509,1132.512,1132.514,1132.516,1132.522,1132.562,1132.564,1132.566,1132.569,1132.571,1132.573,1132.577,1132.621,1132.623,1132.625,1132.628,1132.63,1132.632,1132.636,1132.676,1132.678,1132.68,1132.685,1132.687,1132.689,1132.693,1132.733,1132.735,1132.737,1132.741,1132.743,1132.745,1132.748,1132.792,1132.794,1132.796,1132.799,1132.801,1132.803,1132.808,1132.849,1132.851,1132.853,1132.856,1132.858,1132.86,1132.864,1132.906,1132.908,1132.91,1132.913,1132.915,1132.917,1132.921,1132.964,1132.966,1132.968,1132.972,1132.974,1132.976,1132.98,1133.021,1133.023,1133.025,1133.028,1133.03,1133.032,1133.035,1133.076,1133.078,1133.08,1133.083,1133.085,1133.087,1133.092,1133.137,1133.139,1133.141,1133.144,1133.146,1133.148,1133.151,1133.193,1133.195,1133.197,1133.201,1133.203,1133.205,1133.211,1133.251,1133.253,1133.255,1133.258,1133.26,1133.262,1133.266,1133.309,1133.311,1133.313,1133.317,1133.319,1133.321,1133.325,1133.367,1133.369,1133.371,1133.374,1133.376,1133.378,1133.381,1133.425,1133.427,1133.429,1133.432,1133.434,1133.436,1133.44,1133.48,1133.482,1133.484,1133.487,1133.489,1133.491,1133.497,1133.537,1133.539,1133.541,1133.546,1133.548,1133.55,1133.555,1133.595,1133.597,1133.599,1133.602,1133.604,1133.606,1133.61,1133.652,1133.654,1133.656,1133.66,1133.662,1133.664,1133.667,1133.711,1133.713,1133.715,1133.72,1133.722,1133.724,1133.727,1133.769,1133.771,1133.773,1133.776,1133.778,1133.78,1133.783,1133.825,1133.827,1133.829,1133.833,1133.835,1133.837,1133.842,1133.884,1133.886,1133.888,1133.891,1133.893,1133.895,1133.9,1133.939,1133.941,1133.943,1133.948,1133.95,1133.952,1133.955,1133.997,1133.999,1134.001,1134.004,1134.006,1134.008,1134.011,1134.052,1134.054,1134.056,1134.059,1134.061,1134.063,1134.067,1134.11,1134.112,1134.114,1134.117,1134.119,1134.121,1134.127,1134.166,1134.168,1134.17,1134.173,1134.175,1134.177,1134.181,1134.221,1134.223,1134.225,1134.228,1134.23,1134.232,1134.236,1134.275,1134.277,1134.279,1134.282,1134.284,1134.286,1134.29,1134.333,1134.335,1134.337,1134.34,1134.342,1134.344,1134.35,1134.388,1134.39,1134.392,1134.395,1134.397,1134.399,1134.402,1134.444,1134.446,1134.448,1134.452,1134.454,1134.456,1134.459,1134.499,1134.501,1134.503,1134.505,1134.507,1134.509,1134.515,1134.556,1134.558,1134.56,1134.564,1134.566,1134.568,1134.572,1134.615,1134.617,1134.619,1134.622,1134.624,1134.626,1134.63,1134.673,1134.675,1134.677,1134.681,1134.683,1134.685,1134.689,1134.729,1134.731,1134.733,1134.736,1134.738,1134.74,1134.743,1134.784,1134.786,1134.788,1134.792,1134.794,1134.796,1134.802,1134.838,1134.84,1134.842,1134.846,1134.848,1134.85,1134.854,1134.898,1134.9,1134.902,1134.905,1134.907,1134.909,1134.912,1134.952,1134.954,1134.956,1134.959,1134.961,1134.963,1134.967,1135.01,1135.012,1135.014,1135.017,1135.019,1135.021,1135.027,1135.067,1135.069,1135.071,1135.075,1135.077,1135.079,1135.084,1135.126,1135.128,1135.13,1135.133,1135.135,1135.137,1135.141,1135.184,1135.186,1135.188,1135.19,1135.193,1135.195,1135.197,1135.238,1135.24,1135.242,1135.247,1135.249,1135.251,1135.254,1135.294,1135.296,1135.298,1135.301,1135.303,1135.305,1135.311,1135.35,1135.352,1135.354,1135.357,1135.359,1135.361,1135.365,1135.408,1135.41,1135.412,1135.418,1135.42,1135.422,1135.425,1135.464,1135.466,1135.468,1135.471,1135.473,1135.475,1135.479,1135.52,1135.522,1135.524,1135.528,1135.53,1135.532,1135.538,1135.578,1135.58,1135.582,1135.586,1135.588,1135.59,1135.595,1135.634,1135.636,1135.638,1135.644,1135.646,1135.648,1135.652,1135.694,1135.696,1135.698,1135.7,1135.703,1135.705,1135.707,1135.746,1135.748,1135.75,1135.753,1135.755,1135.757,1135.76,1135.802,1135.804,1135.806,1135.809,1135.811,1135.813,1135.817,1135.86,1135.862,1135.864,1135.867,1135.869,1135.871,1135.875,1135.915,1135.917,1135.919,1135.922,1135.924,1135.926,1135.929,1135.97,1135.972,1135.974,1135.977,1135.979,1135.981,1135.985,1136.025,1136.027,1136.029,1136.033,1136.035,1136.037,1136.041,1136.085,1136.087,1136.089,1136.093,1136.095,1136.097,1136.101,1136.142,1136.144,1136.146,1136.149,1136.151,1136.153,1136.156,1136.199,1136.201,1136.203,1136.206,1136.208,1136.21,1136.214,1136.255,1136.257,1136.259,1136.262,1136.264,1136.266,1136.27,1136.312,1136.314,1136.316,1136.319,1136.321,1136.323,1136.327,1136.367,1136.369,1136.371,1136.374,1136.376,1136.378,1136.381,1136.42,1136.422,1136.424,1136.427,1136.429,1136.431,1136.435,1136.476,1136.478,1136.48,1136.483,1136.485,1136.487,1136.491,1136.535,1136.537,1136.539,1136.542,1136.544,1136.546,1136.55,1136.588,1136.59,1136.592,1136.596,1136.598,1136.6,1136.603,1136.642,1136.644,1136.646,1136.65,1136.652,1136.654,1136.659,1136.699,1136.701,1136.703,1136.705,1136.708,1136.71,1136.712,1136.751,1136.753,1136.755,1136.758,1136.76,1136.762,1136.765,1136.806,1136.808,1136.81,1136.813,1136.815,1136.817,1136.821,1136.866,1136.868,1136.87,1136.873,1136.875,1136.877,1136.881,1136.924,1136.926,1136.928,1136.93,1136.933,1136.935,1136.937,1136.981,1136.983,1136.985,1136.988,1136.99,1136.992,1136.997,1137.039,1137.041,1137.043,1137.047,1137.049,1137.051,1137.054,1137.095,1137.097,1137.099,1137.102,1137.104,1137.106,1137.112,1137.151,1137.153,1137.155,1137.158,1137.16,1137.162,1137.166,1137.204,1137.206,1137.208,1137.211,1137.213,1137.215,1137.219,1137.263,1137.265,1137.267,1137.271,1137.273,1137.275,1137.279,1137.323,1137.325,1137.327,1137.33,1137.332,1137.334,1137.337,1137.376,1137.378,1137.38,1137.383,1137.385,1137.387,1137.391,1137.434,1137.436,1137.438,1137.44,1137.443,1137.446,1137.448,1137.489,1137.495,1137.497,1137.499,1137.502,1137.504,1137.506,1137.547,1137.551,1137.553,1137.555,1137.559,1137.561,1137.563,1137.606,1137.608,1137.61,1137.612,1137.615,1137.617,1137.619,1137.659,1137.663,1137.665,1137.667,1137.671,1137.673,1137.675,1137.715,1137.717,1137.719,1137.721,1137.724,1137.726,1137.728,1137.77,1137.775,1137.777,1137.779,1137.782,1137.784,1137.786,1137.83,1137.834,1137.836,1137.838,1137.841,1137.843,1137.845,1137.886,1137.89,1137.892,1137.894,1137.897,1137.899,1137.901,1137.941,1137.943,1137.945,1137.947,1137.95,1137.952,1137.954,1137.994,1137.999,1138.001,1138.003,1138.006,1138.008,1138.01,1138.052,1138.057,1138.059,1138.061,1138.065,1138.067,1138.069,1138.106,1138.111,1138.113,1138.115,1138.119,1138.121,1138.123,1138.165,1138.167,1138.169,1138.171,1138.176,1138.178,1138.18,1138.222,1138.227,1138.229,1138.231,1138.234,1138.236,1138.238,1138.28,1138.283,1138.285,1138.287,1138.291,1138.293,1138.295,1138.339,1138.342,1138.344,1138.346,1138.35,1138.352,1138.354,1138.395,1138.397,1138.399,1138.401,1138.404,1138.406,1138.408,1138.451,1138.455,1138.457,1138.459,1138.463,1138.465,1138.467,1138.508,1138.513,1138.515,1138.517,1138.519,1138.521,1138.523,1138.564,1138.566,1138.568,1138.57,1138.573,1138.575,1138.577,1138.616,1138.62,1138.622,1138.624,1138.628,1138.63,1138.632,1138.673,1138.675,1138.677,1138.679,1138.682,1138.684,1138.686,1138.729,1138.733,1138.735,1138.737,1138.741,1138.743,1138.745,1138.785,1138.787,1138.789,1138.791,1138.795,1138.797,1138.799,1138.84,1138.844,1138.846,1138.848,1138.85,1138.853,1138.855,1138.896,1138.898,1138.9,1138.902,1138.905,1138.907,1138.909,1138.949,1138.954,1138.956,1138.958,1138.961,1138.963,1138.965,1139.006,1139.011,1139.013,1139.015,1139.018,1139.02,1139.022,1139.067,1139.072,1139.074,1139.076,1139.08,1139.082,1139.084,1139.126,1139.131,1139.133,1139.135,1139.138,1139.14,1139.142,1139.187,1139.192,1139.194,1139.196,1139.199,1139.201,1139.203,1139.246,1139.25,1139.252,1139.254,1139.257,1139.259,1139.261,1139.302,1139.304,1139.306,1139.308,1139.311,1139.313,1139.315,1139.359,1139.363,1139.365,1139.367,1139.371,1139.373,1139.375,1139.416,1139.418,1139.42,1139.422,1139.425,1139.427,1139.429,1139.471,1139.475,1139.477,1139.479,1139.482,1139.484,1139.486,1139.527,1139.531,1139.533,1139.535,1139.539,1139.541,1139.543,1139.584,1139.587,1139.589,1139.591,1139.596,1139.598,1139.6,1139.64,1139.642,1139.644,1139.646,1139.648,1139.65,1139.652,1139.695,1139.698,1139.7,1139.702,1139.708,1139.71,1139.712,1139.753,1139.755,1139.757,1139.759,1139.762,1139.764,1139.766,1139.809,1139.813,1139.815,1139.817,1139.821,1139.823,1139.825,1139.865,1139.87,1139.872,1139.874,1139.877,1139.879,1139.881,1139.921,1139.925,1139.927,1139.929,1139.932,1139.934,1139.936,1139.978,1139.98,1139.982,1139.984,1139.987,1139.989,1139.991,1140.032,1140.035,1140.037,1140.039,1140.043,1140.045,1140.047,1140.09,1140.094,1140.096,1140.098,1140.101,1140.103,1140.105,1140.146,1140.151,1140.153,1140.155,1140.159,1140.161,1140.163,1140.205,1140.209,1140.211,1140.213,1140.215,1140.218,1140.22,1140.26,1140.263,1140.265,1140.267,1140.271,1140.273,1140.275,1140.315,1140.319,1140.321,1140.323,1140.326,1140.328,1140.33,1140.371,1140.375,1140.377,1140.379,1140.383,1140.385,1140.387,1140.43,1140.435,1140.437,1140.439,1140.443,1140.445,1140.447,1140.488,1140.493,1140.495,1140.497,1140.502,1140.504,1140.506,1140.548,1140.553,1140.555,1140.557,1140.562,1140.564,1140.566,1140.607,1140.612,1140.614,1140.616,1140.622,1140.624,1140.626,1140.666,1140.668,1140.67,1140.672,1140.675,1140.677,1140.679,1140.72,1140.722,1140.724,1140.728,1140.73,1140.732,1140.736,1140.774,1140.776,1140.778,1140.781,1140.783,1140.785,1140.789,1140.83,1140.832,1140.834,1140.837,1140.839,1140.841,1140.845,1140.886,1140.888,1140.89,1140.893,1140.895,1140.897,1140.901,1140.944,1140.946,1140.948,1140.953,1140.955,1140.957,1140.961,1141.006,1141.008,1141.01,1141.013,1141.015,1141.017,1141.021,1141.06,1141.062,1141.064,1141.067,1141.069,1141.071,1141.075,1141.115,1141.117,1141.119,1141.123,1141.125,1141.127,1141.13,1141.169,1141.171,1141.173,1141.177,1141.179,1141.181,1141.185,1141.227,1141.229,1141.231,1141.233,1141.235,1141.237,1141.241,1141.28,1141.282,1141.284,1141.288,1141.29,1141.292,1141.297,1141.335,1141.337,1141.339,1141.344,1141.346,1141.348,1141.351,1141.394,1141.396,1141.398,1141.404,1141.406,1141.408,1141.411,1141.454,1141.456,1141.458,1141.464,1141.466,1141.468,1141.471,1141.514,1141.516,1141.518,1141.522,1141.524,1141.526,1141.53,1141.57,1141.572,1141.574,1141.577,1141.579,1141.581,1141.584,1141.625,1141.627,1141.629,1141.633,1141.635,1141.637,1141.641,1141.681,1141.683,1141.685,1141.688,1141.69,1141.692,1141.696,1141.741,1141.743,1141.745,1141.748,1141.75,1141.752,1141.756,1141.795,1141.797,1141.799,1141.802,1141.804,1141.806,1141.81,1141.85,1141.852,1141.854,1141.857,1141.859,1141.861,1141.865,1141.904,1141.906,1141.91,1141.912,1141.914,1141.918,1141.92,1141.961,1141.963,1141.965,1141.967,1141.969,1141.971,1141.976,1142.017,1142.023,1142.025,1142.027,1142.03,1142.032,1142.034,1142.074,1142.076,1142.078,1142.08,1142.083,1142.085,1142.087,1142.131,1142.133,1142.135,1142.138,1142.14,1142.142,1142.146,1142.189,1142.191,1142.193,1142.197,1142.199,1142.201,1142.205,1142.247,1142.249,1142.251,1142.253,1142.255,1142.257,1142.261,1142.305,1142.31,1142.312,1142.314,1142.317,1142.319,1142.321,1142.363,1142.367,1142.369,1142.371,1142.373,1142.376,1142.378,1142.415,1142.418,1142.42,1142.422,1142.426,1142.428,1142.43,1142.468,1142.473,1142.475,1142.477,1142.483,1142.485,1142.487,1142.53,1142.536,1142.538,1142.54,1142.543,1142.545,1142.547,1142.588,1142.592,1142.594,1142.596,1142.598,1142.601,1142.603,1142.643,1142.645,1142.647,1142.65,1142.652,1142.654,1142.659,1142.699,1142.701,1142.706,1142.708,1142.712,1142.714,1142.716,1142.757,1142.762,1142.764,1142.766,1142.769,1142.771,1142.773,1142.817,1142.819,1142.821,1142.825,1142.827,1142.829,1142.833,1142.874,1142.876,1142.878,1142.882,1142.884,1142.886,1142.89,1142.932,1142.934,1142.936,1142.94,1142.942,1142.944,1142.947,1142.986,1142.988,1142.99,1142.992,1142.994,1142.996,1143.001,1143.041,1143.043,1143.045,1143.05,1143.052,1143.054,1143.058,1143.097,1143.099,1143.101,1143.105,1143.107,1143.109,1143.115,1143.155,1143.157,1143.159,1143.162,1143.164,1143.166,1143.169,1143.208,1143.21,1143.212,1143.215,1143.217,1143.219,1143.223,1143.261,1143.263,1143.265,1143.269,1143.271,1143.273,1143.277,1143.315,1143.317,1143.319,1143.322,1143.324,1143.326,1143.33,1143.372,1143.374,1143.376,1143.382,1143.384,1143.386,1143.389,1143.428,1143.43,1143.432,1143.435,1143.437,1143.439,1143.442,1143.484,1143.486,1143.488,1143.491,1143.493,1143.495,1143.499,1143.541,1143.543,1143.545,1143.548,1143.55,1143.552,1143.556,1143.595,1143.597,1143.599,1143.602,1143.604,1143.606,1143.609,1143.65,1143.652,1143.654,1143.658,1143.66,1143.662,1143.668,1143.709,1143.711,1143.713,1143.717,1143.719,1143.721,1143.724,1143.763,1143.765,1143.767,1143.77,1143.772,1143.774,1143.778,1143.816,1143.818,1143.82,1143.824,1143.826,1143.828,1143.834,1143.874,1143.876,1143.878,1143.881,1143.883,1143.885,1143.891,1143.931,1143.933,1143.935,1143.938,1143.94,1143.942,1143.946,1143.987,1143.989,1143.991,1143.995,1143.997,1143.999,1144.003,1144.044,1144.046,1144.048,1144.051,1144.053,1144.055,1144.058,1144.099,1144.101,1144.103,1144.106,1144.108,1144.11,1144.116,1144.155,1144.157,1144.159,1144.165,1144.167,1144.169,1144.175,1144.215,1144.217,1144.219,1144.222,1144.224,1144.226,1144.23,1144.273,1144.275,1144.277,1144.279,1144.281,1144.283,1144.287,1144.327,1144.329,1144.331,1144.334,1144.336,1144.338,1144.344,1144.386,1144.388,1144.39,1144.394,1144.396,1144.398,1144.402,1144.44,1144.442,1144.444,1144.449,1144.451,1144.453,1144.456,1144.494,1144.496,1144.498,1144.501,1144.503,1144.505,1144.509,1144.554,1144.556,1144.558,1144.561,1144.563,1144.565,1144.568,1144.609,1144.611,1144.613,1144.617,1144.619,1144.621,1144.624,1144.664,1144.666,1144.668,1144.674,1144.676,1144.678,1144.681,1144.725,1144.727,1144.729,1144.735,1144.737,1144.739,1144.742,1144.783,1144.785,1144.787,1144.793,1144.795,1144.797,1144.8,1144.841,1144.843,1144.845,1144.85,1144.852,1144.854,1144.858,1144.899,1144.901,1144.903,1144.906,1144.908,1144.91,1144.914,1144.956,1144.958,1144.96,1144.963,1144.965,1144.967,1144.973,1145.015,1145.017,1145.019,1145.022,1145.024,1145.026,1145.032,1145.073,1145.075,1145.077,1145.08,1145.082,1145.084,1145.09,1145.129,1145.131,1145.133,1145.138,1145.14,1145.142,1145.146,1145.189,1145.191,1145.193,1145.199,1145.201,1145.203,1145.206,1145.249,1145.251,1145.253,1145.257,1145.259,1145.261,1145.265,1145.305,1145.307,1145.309,1145.313,1145.315,1145.317,1145.32,1145.361,1145.363,1145.365,1145.369,1145.371,1145.373,1145.379,1145.417,1145.419,1145.421,1145.423,1145.425,1145.427,1145.431,1145.474,1145.476,1145.478,1145.484,1145.486,1145.488,1145.491,1145.531,1145.533,1145.535,1145.539,1145.541,1145.543,1145.546,1145.587,1145.589,1145.591,1145.595,1145.597,1145.599,1145.602,1145.642,1145.644,1145.646,1145.648,1145.65,1145.652,1145.656,1145.699,1145.701,1145.703,1145.709,1145.711,1145.713,1145.716,1145.758,1145.76,1145.762,1145.764,1145.766,1145.768,1145.771,1145.815,1145.817,1145.819,1145.823,1145.825,1145.827,1145.83,1145.871,1145.873,1145.875,1145.879,1145.881,1145.883,1145.889,1145.931,1145.933,1145.935,1145.939,1145.941,1145.943,1145.949,1145.991,1145.993,1145.995,1145.999,1146.001,1146.003,1146.007,1146.047,1146.049,1146.051,1146.054,1146.056,1146.058,1146.062,1146.105,1146.107,1146.109,1146.115,1146.117,1146.119,1146.122,1146.162,1146.164,1146.166,1146.169,1146.171,1146.173,1146.177,1146.22,1146.222,1146.224,1146.227,1146.229,1146.231,1146.234,1146.272,1146.274,1146.276,1146.279,1146.281,1146.283,1146.287,1146.329,1146.331
1146.333,1146.339,1146.341,1146.343,1146.346,1146.384,1146.386,1146.388,1146.391,1146.393,1146.395,1146.398,1146.441,1146.443,1146.445,1146.449,1146.451,1146.453,1146.459,1146.499,1146.501,1146.503,1146.506,1146.508,1146.51,1146.516,1146.556,1146.558,1146.56,1146.563,1146.565,1146.567,1146.571,1146.616,1146.618,1146.62,1146.623,1146.625,1146.627,1146.631,1146.677,1146.679,1146.681,1146.684,1146.686,1146.688,1146.692,1146.735,1146.737,1146.739,1146.744,1146.746,1146.748,1146.754,1146.792,1146.794,1146.796,1146.799,1146.801,1146.803,1146.807,1146.848,1146.85,1146.852,1146.855,1146.857,1146.859,1146.862,1146.901,1146.903,1146.905,1146.907,1146.909,1146.911,1146.915,1146.954,1146.956,1146.958,1146.961,1146.963,1146.965,1146.968,1147.01,1147.012,1147.014,1147.018,1147.02,1147.022,1147.028,1147.067,1147.069,1147.071,1147.075,1147.077,1147.079,1147.085,1147.125,1147.127,1147.129,1147.132,1147.134,1147.136,1147.14,1147.181,1147.183,1147.185,1147.189,1147.191,1147.193,1147.196,1147.237,1147.239,1147.241,1147.245,1147.247,1147.249,1147.255,1147.294,1147.296,1147.298,1147.3,1147.302,1147.304,1147.31,1147.348,1147.35,1147.352,1147.358,1147.36,1147.362,1147.365,1147.405,1147.407,1147.409,1147.412,1147.414,1147.416,1147.419,1147.463,1147.465,1147.467,1147.471,1147.473,1147.475,1147.48,1147.522,1147.524,1147.526,1147.53,1147.532,1147.534,1147.538,1147.581,1147.583,1147.585,1147.588,1147.59,1147.592,1147.595,1147.635,1147.637,1147.639,1147.642,1147.644,1147.646,1147.65,1147.693,1147.695,1147.697,1147.702,1147.704,1147.706,1147.71,1147.751,1147.753,1147.755,1147.761,1147.763,1147.765,1147.768,1147.81,1147.812,1147.814,1147.817,1147.819,1147.821,1147.825,1147.865,1147.867,1147.869,1147.873,1147.875,1147.877,1147.88,1147.92,1147.922,1147.924,1147.927,1147.929,1147.931,1147.935,1147.979,1147.981,1147.983,1147.987,1147.989,1147.991,1147.995,1148.037,1148.039,1148.041,1148.044,1148.046,1148.048,1148.052,1148.095,1148.097,1148.099,1148.102,1148.104,1148.106,1148.109,1148.147,1148.149,1148.151,1148.153,1148.155,1148.157,1148.16,1148.199,1148.201,1148.203,1148.206,1148.208,1148.21,1148.213,1148.257,1148.259,1148.261,1148.265,1148.267,1148.269,1148.274,1148.314,1148.316,1148.318,1148.321,1148.323,1148.325,1148.331,1148.372,1148.374,1148.376,1148.38,1148.382,1148.384,1148.39,1148.432,1148.434,1148.436,1148.44,1148.442,1148.444,1148.448,1148.49,1148.492,1148.494,1148.497,1148.499,1148.501,1148.505,1148.547,1148.549,1148.551,1148.554,1148.556,1148.558,1148.562,1148.601,1148.603,1148.605,1148.608,1148.61,1148.612,1148.615,1148.655,1148.657,1148.659,1148.662,1148.664,1148.666,1148.67,1148.711,1148.713,1148.715,1148.72,1148.722,1148.724,1148.728,1148.772,1148.774,1148.776,1148.779,1148.781,1148.783,1148.786,1148.828,1148.83,1148.832,1148.835,1148.837,1148.839,1148.843,1148.883,1148.885,1148.887,1148.89,1148.892,1148.894,1148.9,1148.939,1148.941,1148.943,1148.945,1148.947,1148.949,1148.953,1148.993,1148.995,1148.997,1149.001,1149.003,1149.005,1149.009,1149.051,1149.053,1149.055,1149.058,1149.06,1149.062,1149.065,1149.104,1149.106,1149.108,1149.112,1149.114,1149.116,1149.12,1149.159,1149.161,1149.163,1149.166,1149.168,1149.17,1149.175,1149.215,1149.217,1149.219,1149.222,1149.224,1149.226,1149.23,1149.269,1149.271,1149.273,1149.277,1149.279,1149.281,1149.285,1149.326,1149.328,1149.33,1149.333,1149.335,1149.337,1149.341,1149.38,1149.382,1149.384,1149.387,1149.389,1149.391,1149.395,1149.437,1149.439,1149.441,1149.444,1149.446,1149.448,1149.452,1149.492,1149.494,1149.496,1149.499,1149.501,1149.503,1149.507,1149.546,1149.548,1149.55,1149.554,1149.556,1149.558,1149.561,1149.605,1149.607,1149.609,1149.613,1149.615,1149.617,1149.62,1149.657,1149.659,1149.661,1149.664,1149.666,1149.668,1149.672,1149.71,1149.712,1149.714,1149.716,1149.718,1149.72,1149.725,1149.765,1149.767,1149.769,1149.772,1149.774,1149.776,1149.78,1149.824,1149.826,1149.828,1149.832,1149.834,1149.836,1149.84,1149.878,1149.88,1149.882,1149.885,1149.887,1149.889,1149.893,1149.935,1149.937,1149.939,1149.943,1149.945,1149.947,1149.95,1149.99,1149.992,1149.994,1149.997,1149.999,1150.001,1150.005,1150.046,1150.048,1150.05,1150.054,1150.056,1150.058,1150.061,1150.106,1150.108,1150.11,1150.114,1150.116,1150.118,1150.122,1150.163,1150.165,1150.167,1150.17,1150.172,1150.174,1150.178,1150.216,1150.218,1150.22,1150.223,1150.225,1150.227,1150.231,1150.273,1150.275,1150.277,1150.28,1150.282,1150.284,1150.288,1150.325,1150.327,1150.329,1150.332,1150.334,1150.336,1150.34,1150.379,1150.381,1150.383,1150.387,1150.389,1150.391,1150.395,1150.434,1150.436,1150.438,1150.441,1150.443,1150.445,1150.448,1150.486,1150.488,1150.49,1150.493,1150.495,1150.497,1150.502,1150.544,1150.546,1150.548,1150.552,1150.554,1150.556,1150.56,1150.603,1150.605,1150.607,1150.609,1150.611,1150.613,1150.617,1150.655,1150.657,1150.659,1150.662,1150.664,1150.666,1150.67,1150.71,1150.712,1150.714,1150.717,1150.719,1150.721,1150.725,1150.767,1150.769,1150.771,1150.777,1150.779,1150.781,1150.784,1150.827,1150.829,1150.831,1150.834,1150.836,1150.838,1150.841,1150.883,1150.885,1150.887,1150.89,1150.892,1150.894,1150.899,1150.939,1150.941,1150.943,1150.946,1150.948,1150.95,1150.955,1150.995,1150.997,1150.999,1151.002,1151.004,1151.006,1151.01,1151.053,1151.055,1151.057,1151.059,1151.061,1151.063,1151.066,1151.108,1151.11,1151.112,1151.115,1151.117,1151.119,1151.123,1151.167,1151.169,1151.171,1151.174,1151.176,1151.178,1151.183,1151.224,1151.226,1151.228,1151.231,1151.233,1151.235,1151.24,1151.28,1151.282,1151.284,1151.287,1151.289,1151.291,1151.295,1151.337,1151.339,1151.341,1151.344,1151.346,1151.348,1151.352,1151.39,1151.392,1151.394,1151.397,1151.399,1151.401,1151.405,1151.443,1151.445,1151.447,1151.451,1151.453,1151.455,1151.459,1151.502,1151.504,1151.506,1151.509,1151.511,1151.513,1151.516,1151.555,1151.557,1151.559,1151.563,1151.565,1151.567,1151.57,1151.61,1151.612,1151.614,1151.617,1151.619,1151.621,1151.625,1151.664,1151.666,1151.668,1151.671,1151.673,1151.675,1151.678,1151.718,1151.72,1151.722,1151.725,1151.727,1151.729,1151.733,1151.772,1151.774,1151.776,1151.779,1151.781,1151.783,1151.787,1151.827,1151.829,1151.831,1151.834,1151.836,1151.838,1151.842,1151.884,1151.886,1151.888,1151.891,1151.893,1151.895,1151.901,1151.939,1151.941,1151.943,1151.948,1151.95,1151.952,1151.956,1151.997,1151.999,1152.001,1152.004,1152.006,1152.008,1152.011,1152.052,1152.054,1152.056,1152.06,1152.062,1152.064,1152.067,1152.109,1152.111,1152.113,1152.117,1152.119,1152.121,1152.125,1152.165,1152.167,1152.169,1152.173,1152.175,1152.177,1152.181,1152.224,1152.226,1152.228,1152.232,1152.234,1152.236,1152.24,1152.281,1152.283,1152.285,1152.288,1152.29,1152.292,1152.295,1152.34,1152.342,1152.344,1152.347,1152.349,1152.351,1152.354,1152.399,1152.401,1152.403,1152.406,1152.408,1152.41,1152.413,1152.454,1152.456,1152.458,1152.461,1152.463,1152.465,1152.471,1152.511,1152.513,1152.515,1152.518,1152.52,1152.522,1152.526,1152.569,1152.571,1152.573,1152.577,1152.579,1152.581,1152.585,1152.628,1152.63,1152.632,1152.638,1152.64,1152.642,1152.645,1152.685,1152.687,1152.689,1152.692,1152.694,1152.696,1152.701,1152.742,1152.744,1152.746,1152.75,1152.752,1152.754,1152.759,1152.797,1152.799,1152.801,1152.805,1152.807,1152.809,1152.813,1152.854,1152.856,1152.858,1152.862,1152.864,1152.866,1152.871,1152.916,1152.918,1152.92,1152.924,1152.926,1152.928,1152.932,1152.968,1152.97,1152.972,1152.975,1152.977,1152.979,1152.982,1153.024,1153.026,1153.028,1153.032,1153.034,1153.036,1153.04,1153.08,1153.082,1153.084,1153.088,1153.09,1153.092,1153.096,1153.141,1153.143,1153.145,1153.148,1153.15,1153.152,1153.156,1153.195,1153.197,1153.199,1153.202,1153.204,1153.206,1153.209,1153.252,1153.254,1153.256,1153.26,1153.262,1153.264,1153.269,1153.31,1153.312,1153.314,1153.317,1153.319,1153.321,1153.325,1153.365,1153.367,1153.369,1153.372,1153.374,1153.376,1153.38,1153.424,1153.426,1153.428,1153.434,1153.436,1153.438,1153.441,1153.482,1153.484,1153.486,1153.492,1153.494,1153.496,1153.499,1153.539,1153.541,1153.543,1153.548,1153.55,1153.552,1153.555,1153.597,1153.599,1153.601,1153.604,1153.606,1153.608,1153.612,1153.651,1153.653,1153.655,1153.659,1153.661,1153.663,1153.667,1153.708,1153.71,1153.712,1153.717,1153.719,1153.721,1153.725,1153.768,1153.77,1153.772,1153.775,1153.777,1153.779,1153.782,1153.824,1153.826,1153.828,1153.831,1153.833,1153.835,1153.838,1153.879,1153.881,1153.883,1153.887,1153.889,1153.891,1153.895,1153.933,1153.935,1153.937,1153.942,1153.944,1153.946,1153.95,1153.993,1153.995,1153.997,1154.0,1154.002,1154.004,1154.007,1154.049,1154.051,1154.053,1154.056,1154.058,1154.06,1154.062,1154.104,1154.106,1154.108,1154.111,1154.113,1154.115,1154.12,1154.161,1154.163,1154.165,1154.168,1154.17,1154.172,1154.176,1154.218,1154.22,1154.222,1154.227,1154.229,1154.231,1154.235,1154.281,1154.283,1154.285,1154.288,1154.29,1154.292,1154.296,1154.338,1154.34,1154.342,1154.347,1154.349,1154.351,1154.354,1154.393,1154.395,1154.397,1154.4,1154.402,1154.404,1154.406,1154.448,1154.45,1154.452,1154.454,1154.458,1154.46,1154.462,1154.505,1154.508,1154.51,1154.512,1154.515,1154.517,1154.519,1154.56,1154.562,1154.564,1154.566,1154.57,1154.572,1154.574,1154.614,1154.616,1154.618,1154.62,1154.623,1154.625,1154.627,1154.669,1154.671,1154.673,1154.675,1154.677,1154.679,1154.681,1154.725,1154.73,1154.732,1154.734,1154.74,1154.742,1154.744,1154.786,1154.791,1154.793,1154.795,1154.798,1154.8,1154.802,1154.845,1154.85,1154.852,1154.854,1154.856,1154.859,1154.861,1154.902,1154.906,1154.908,1154.91,1154.914,1154.916,1154.918,1154.96,1154.962,1154.964,1154.966,1154.969,1154.971,1154.973,1155.012,1155.016,1155.018,1155.02,1155.024,1155.026,1155.028,1155.071,1155.074,1155.076,1155.078,1155.084,1155.086,1155.088,1155.127,1155.132,1155.134,1155.136,1155.14,1155.142,1155.144,1155.184,1155.186,1155.188,1155.19,1155.194,1155.196,1155.198,1155.236,1155.241,1155.243,1155.245,1155.248,1155.25,1155.252,1155.293,1155.295,1155.297,1155.299,1155.302,1155.304,1155.306,1155.348,1155.35,1155.352,1155.354,1155.357,1155.359,1155.361,1155.401,1155.405,1155.407,1155.409,1155.413,1155.415,1155.417,1155.457,1155.459,1155.461,1155.463,1155.466,1155.468,1155.47,1155.51,1155.512,1155.514,1155.516,1155.518,1155.52,1155.522,1155.563,1155.565,1155.567,1155.569,1155.572,1155.574,1155.576,1155.618,1155.623,1155.625,1155.627,1155.63,1155.632,1155.634,1155.677,1155.679,1155.681,1155.684,1155.686,1155.688,1155.692,1155.73,1155.732,1155.734,1155.737,1155.739,1155.741,1155.744,1155.788,1155.79,1155.792,1155.795,1155.797,1155.799,1155.802,1155.84,1155.842,1155.844,1155.846,1155.848,1155.85,1155.852,1155.894,1155.896,1155.898,1155.901,1155.903,1155.905,1155.91,1155.952,1155.954,1155.956,1155.96,1155.962,1155.964,1155.968,1156.007,1156.009,1156.011,1156.015,1156.017,1156.019,1156.022,1156.065,1156.067,1156.069,1156.075,1156.077,1156.079,1156.082,1156.124,1156.126,1156.128,1156.134,1156.136,1156.138,1156.141,1156.183,1156.185,1156.19,1156.192,1156.194,1156.198,1156.2,1156.241,1156.246,1156.248,1156.25,1156.253,1156.255,1156.257,1156.298,1156.3,1156.302,1156.304,1156.307,1156.309,1156.311,1156.353,1156.357,1156.359,1156.361,1156.365,1156.367,1156.369,1156.411,1156.413,1156.415,1156.417,1156.42,1156.422,1156.424,1156.465,1156.469,1156.471,1156.473,1156.479,1156.481,1156.483,1156.525,1156.529,1156.531,1156.533,1156.537,1156.539,1156.541,1156.585,1156.59,1156.592,1156.594,1156.599,1156.601,1156.603,1156.646,1156.65,1156.652,1156.654,1156.657,1156.659,1156.661,1156.703,1156.707,1156.709,1156.711,1156.715,1156.717,1156.719,1156.758,1156.762,1156.764,1156.766,1156.77,1156.772,1156.774,1156.815,1156.818,1156.82,1156.822,1156.826,1156.828,1156.83,1156.871,1156.875,1156.877,1156.879,1156.882,1156.884,1156.886,1156.927,1156.929,1156.931,1156.933,1156.936,1156.938,1156.94,1156.983,1156.988,1156.99,1156.992,1156.995,1156.997,1156.999,1157.04,1157.042,1157.044,1157.046,1157.049,1157.051,1157.053,1157.096,1157.1,1157.102,1157.104,1157.11,1157.112,1157.114,1157.156,1157.161,1157.163,1157.165,1157.168,1157.17,1157.172,1157.215,1157.217,1157.219,1157.221,1157.224,1157.226,1157.228,1157.269,1157.274,1157.276,1157.278,1157.281,1157.283,1157.285,1157.328,1157.333,1157.335,1157.337,1157.341,1157.343,1157.345,1157.388,1157.392,1157.394,1157.396,1157.4,1157.402,1157.404,1157.445,1157.448,1157.45,1157.452,1157.456,1157.458,1157.46,1157.501,1157.506,1157.508,1157.51,1157.513,1157.515,1157.517,1157.558,1157.56,1157.562,1157.564,1157.567,1157.569,1157.571,1157.613,1157.617,1157.619,1157.621,1157.625,1157.627,1157.629,1157.671,1157.675,1157.677,1157.679,1157.682,1157.684,1157.686,1157.726,1157.73,1157.732,1157.734,1157.74,1157.742,1157.744,1157.786,1157.788,1157.79,1157.792,1157.795,1157.797,1157.799,1157.84,1157.845,1157.847,1157.849,1157.852,1157.854,1157.856,1157.899,1157.901,1157.903,1157.905,1157.908,1157.91,1157.912,1157.954,1157.959,1157.961,1157.963,1157.966,1157.968,1157.97,1158.012,1158.016,1158.018,1158.02,1158.024,1158.026,1158.028,1158.071,1158.073,1158.075,1158.077,1158.082,1158.084,1158.086,1158.127,1158.132,1158.134,1158.136,1158.142,1158.144,1158.146,1158.187,1158.191,1158.193,1158.195,1158.199,1158.201,1158.203,1158.244,1158.246,1158.248,1158.25,1158.253,1158.255,1158.257,1158.297,1158.301,1158.303,1158.305,1158.308,1158.31,1158.312,1158.353,1158.355,1158.357,1158.359,1158.362,1158.364,1158.366,1158.408,1158.413,1158.415,1158.417,1158.42,1158.422,1158.424,1158.465,1158.469,1158.471,1158.473,1158.476,1158.478,1158.48,1158.522,1158.525,1158.527,1158.529,1158.534,1158.536,1158.538,1158.58,1158.585,1158.587,1158.589,1158.592,1158.594,1158.596,1158.638,1158.643,1158.645,1158.647,1158.652,1158.654,1158.656,1158.698,1158.702,1158.704,1158.706,1158.712,1158.714,1158.716,1158.757,1158.761,1158.763,1158.765,1158.769,1158.771,1158.773,1158.814,1158.818,1158.82,1158.822,1158.826,1158.828,1158.83,1158.873,1158.878,1158.88,1158.882,1158.885,1158.887,1158.889,1158.931,1158.933,1158.935,1158.937,1158.94,1158.942,1158.944,1158.986,1158.991,1158.993,1158.995,1158.998,1159.0,1159.002,1159.043,1159.045,1159.047,1159.049,1159.052,1159.054,1159.056,1159.097,1159.102,1159.104,1159.106,1159.11,1159.112,1159.114,1159.155,1159.16,1159.162,1159.164,1159.167,1159.169,1159.171,1159.212,1159.217,1159.219,1159.221,1159.224,1159.226,1159.228,1159.271,1159.276,1159.278,1159.28,1159.283,1159.285,1159.287,1159.33,1159.335,1159.337,1159.339,1159.342,1159.344,1159.346,1159.388,1159.393,1159.395,1159.397,1159.399,1159.401,1159.403,1159.444,1159.449,1159.451,1159.453,1159.456,1159.458,1159.46,1159.502,1159.507,1159.509,1159.511,1159.514,1159.516,1159.518,1159.558,1159.563,1159.565,1159.567,1159.57,1159.572,1159.574,1159.616,1159.619,1159.621,1159.623,1159.627,1159.629,1159.631,1159.673,1159.677,1159.679,1159.681,1159.684,1159.686,1159.688,1159.732,1159.736,1159.738,1159.74,1159.744,1159.746,1159.748,1159.79,1159.795,1159.797,1159.799,1159.802,1159.804,1159.806,1159.848,1159.852,1159.854,1159.856,1159.86,1159.862,1159.864,1159.908,1159.912,1159.914,1159.916,1159.92,1159.922,1159.924,1159.965,1159.969,1159.971,1159.973,1159.976,1159.978,1159.98,1160.02,1160.025,1160.027,1160.029,1160.033,1160.035,1160.037,1160.08,1160.084,1160.086,1160.088,1160.094,1160.096,1160.098,1160.138,1160.143,1160.145,1160.147,1160.153,1160.155,1160.157,1160.2,1160.204,1160.206,1160.208,1160.214,1160.216,1160.218,1160.26,1160.266,1160.268,1160.27,1160.273,1160.275,1160.277,1160.317,1160.319,1160.321,1160.323,1160.326,1160.328,1160.33,1160.369,1160.374,1160.376,1160.378,1160.381,1160.383,1160.385,1160.426,1160.432,1160.434,1160.436,1160.439,1160.441,1160.443,1160.484,1160.49,1160.492,1160.494,1160.497,1160.499,1160.501,1160.543,1160.545,1160.547,1160.549,1160.552,1160.554,1160.556,1160.597,1160.602,1160.604,1160.606,1160.61,1160.612,1160.614,1160.655,1160.661,1160.663,1160.665,1160.668,1160.67,1160.672,1160.712,1160.715,1160.717,1160.719,1160.723,1160.725,1160.727,1160.77,1160.772,1160.774,1160.776,1160.781,1160.783,1160.785,1160.825,1160.827,1160.829,1160.831,1160.834,1160.836,1160.838,1160.879,1160.883,1160.885,1160.887,1160.889,1160.891,1160.894,1160.932,1160.934,1160.936,1160.938,1160.941,1160.943,1160.945,1160.984,1160.989,1160.991,1160.993,1160.996,1160.998,1161.0,1161.041,1161.044,1161.046,1161.048,1161.053,1161.055,1161.057,1161.098,1161.103,1161.105,1161.107,1161.113,1161.115,1161.117,1161.158,1161.162,1161.164,1161.166,1161.17,1161.172,1161.174,1161.214,1161.217,1161.219,1161.221,1161.225,1161.227,1161.229,1161.27,1161.272,1161.274,1161.276,1161.278,1161.28,1161.282,1161.325,1161.329,1161.331,1161.333,1161.339,1161.341,1161.343,1161.383,1161.388,1161.39,1161.392,1161.396,1161.398,1161.4,1161.441,1161.443,1161.445,1161.447,1161.451,1161.453,1161.455,1161.495,1161.498,1161.5,1161.502,1161.505,1161.507,1161.509,1161.551,1161.556,1161.558,1161.56,1161.563,1161.565,1161.567,1161.608,1161.613,1161.615,1161.617,1161.623,1161.625,1161.627,1161.667,1161.672,1161.674,1161.676,1161.682,1161.684,1161.686,1161.727,1161.729,1161.731,1161.733,1161.736,1161.738,1161.74,1161.783,1161.788,1161.79,1161.792,1161.795,1161.797,1161.799,1161.84,1161.845,1161.847,1161.849,1161.852,1161.854,1161.856,1161.897,1161.901,1161.903,1161.905,1161.909,1161.911,1161.913,1161.956,1161.958,1161.96,1161.962,1161.967,1161.969,1161.971,1162.012,1162.017,1162.019,1162.021,1162.027,1162.029,1162.031,1162.072,1162.077,1162.079,1162.081,1162.085,1162.087,1162.089,1162.128,1162.133,1162.135,1162.137,1162.141,1162.143,1162.145,1162.187,1162.19,1162.192,1162.194,1162.198,1162.2,1162.202,1162.242,1162.246,1162.248,1162.25,1162.254,1162.256,1162.258,1162.298,1162.303,1162.305,1162.307,1162.313,1162.315,1162.317,1162.36,1162.366,1162.368,1162.37,1162.373,1162.375,1162.377,1162.418,1162.423,1162.425,1162.427,1162.43,1162.432,1162.434,1162.476,1162.478,1162.48,1162.482,1162.485,1162.487,1162.489,1162.533,1162.538,1162.54,1162.542,1162.545,1162.547,1162.549,1162.591,1162.593,1162.595,1162.597,1162.6,1162.602,1162.604,1162.645,1162.647,1162.649,1162.651,1162.654,1162.656,1162.658,1162.7,1162.702,1162.704,1162.706,1162.709,1162.711,1162.713,1162.756,1162.761,1162.763,1162.765,1162.768,1162.77,1162.772,1162.814,1162.816,1162.818,1162.82,1162.823,1162.825,1162.827,1162.869,1162.871,1162.873,1162.878,1162.88,1162.882,1162.885,1162.926,1162.928,1162.93,1162.933,1162.935,1162.937,1162.943,1162.984,1162.986,1162.988,1162.991,1162.993,1162.995,1163.0,1163.042,1163.044,1163.046,1163.048,1163.051,1163.053,1163.055,1163.097,1163.1,1163.102,1163.104,1163.109,1163.111,1163.113,1163.155,1163.16,1163.162,1163.164,1163.167,1163.169,1163.171,1163.212,1163.217,1163.219,1163.221,1163.225,1163.227,1163.229,1163.269,1163.274,1163.276,1163.278,1163.281,1163.283,1163.285,1163.325,1163.329,1163.331,1163.333,1163.336,1163.338,1163.34,1163.38,1163.382,1163.384,1163.387,1163.389,1163.391,1163.394,1163.438,1163.44,1163.442,1163.446,1163.448,1163.45,1163.454,1163.496,1163.498,1163.5,1163.503,1163.505,1163.507,1163.511,1163.552,1163.554,1163.556,1163.559,1163.561,1163.563,1163.567,1163.611,1163.613,1163.615,1163.618,1163.62,1163.622,1163.627,1163.667,1163.669,1163.671,1163.675,1163.677,1163.679,1163.682,1163.722,1163.728,1163.73,1163.732,1163.737,1163.739,1163.741,1163.782,1163.784,1163.786,1163.788,1163.791,1163.793,1163.795,1163.835,1163.839,1163.841,1163.843,1163.847,1163.849,1163.851,1163.895,1163.897,1163.899,1163.902,1163.904,1163.906,1163.91,1163.949,1163.951,1163.953,1163.956,1163.958,1163.96,1163.963,1164.006,1164.008,1164.01,1164.013,1164.015,1164.017,1164.021,1164.062,1164.064,1164.066,1164.069,1164.071,1164.073,1164.077,1164.117,1164.119,1164.121,1164.123,1164.126,1164.128,1164.13,1164.172,1164.178,1164.18,1164.182,1164.187,1164.189,1164.191,1164.232,1164.237,1164.239,1164.241,1164.247,1164.249,1164.251,1164.291,1164.296,1164.298,1164.3,1164.306,1164.308,1164.31,1164.348,1164.35,1164.352,1164.354,1164.357,1164.359,1164.361,1164.405,1164.407,1164.409,1164.412,1164.414,1164.416,1164.42,1164.461,1164.463,1164.465,1164.471,1164.473,1164.475,1164.478,1164.519,1164.521,1164.523,1164.526,1164.528,1164.53,1164.534,1164.577,1164.579,1164.581,1164.585,1164.587,1164.589,1164.593,1164.638,1164.64,1164.642,1164.645,1164.647,1164.649,1164.655,1164.691,1164.693,1164.695,1164.698,1164.7,1164.702,1164.706,1164.749,1164.751,1164.753,1164.757,1164.759,1164.761,1164.765,1164.803,1164.805,1164.807,1164.81,1164.812,1164.814,1164.818,1164.862,1164.864,1164.866,1164.87,1164.872,1164.874,1164.879,1164.919,1164.921,1164.923,1164.927,1164.929,1164.931,1164.937,1164.978,1164.98,1164.982,1164.986,1164.988,1164.99,1164.995,1165.036,1165.038,1165.04,1165.043,1165.045,1165.047,1165.051,1165.089,1165.091,1165.093,1165.097,1165.099,1165.101,1165.104,1165.148,1165.15,1165.152,1165.155,1165.157,1165.159,1165.163,1165.204,1165.206,1165.208,1165.211,1165.213,1165.215,1165.22,1165.262,1165.264,1165.266,1165.269,1165.271,1165.273,1165.277,1165.318,1165.32,1165.322,1165.325,1165.327,1165.329,1165.332,1165.37,1165.372,1165.376,1165.378,1165.38,1165.385,1165.387,1165.429,1165.431,1165.433,1165.435,1165.439,1165.441,1165.443,1165.484,1165.489,1165.491,1165.493,1165.496,1165.498,1165.5,1165.54,1165.542,1165.544,1165.546,1165.551,1165.553,1165.555,1165.595,1165.597,1165.599,1165.601,1165.604,1165.606,1165.608,1165.649,1165.651,1165.653,1165.655,1165.659,1165.661,1165.663,1165.705,1165.71,1165.712,1165.714,1165.717,1165.719,1165.721,1165.763,1165.768,1165.77,1165.772,1165.778,1165.78,1165.782,1165.823,1165.825,1165.827,1165.829,1165.832,1165.834,1165.836,1165.878,1165.883,1165.885,1165.887,1165.89,1165.892,1165.894,1165.935,1165.939,1165.941,1165.943,1165.946,1165.948,1165.95,1165.99,1165.992,1165.994,1165.996,1166.0,1166.002,1166.004,1166.043,1166.048,1166.05,1166.052,1166.055,1166.057,1166.059,1166.098,1166.104,1166.106,1166.108,1166.111,1166.113,1166.115,1166.156,1166.161,1166.163,1166.165,1166.168,1166.17,1166.172,1166.215,1166.22,1166.222,1166.224,1166.227,1166.229,1166.231,1166.273,1166.278,1166.28,1166.282,1166.288,1166.29,1166.292,1166.332,1166.337,1166.339,1166.341,1166.347,1166.349,1166.351,1166.392,1166.394,1166.396,1166.398,1166.401,1166.403,1166.405,1166.448,1166.453,1166.455,1166.457,1166.46,1166.462,1166.464,1166.506,1166.51,1166.512,1166.514,1166.519,1166.521,1166.523,1166.564,1166.568,1166.57,1166.572,1166.575,1166.577,1166.579,1166.621,1166.625,1166.627,1166.629,1166.633,1166.635,1166.637,1166.68,1166.684,1166.686,1166.688,1166.692,1166.694,1166.696,1166.739,1166.744,1166.746,1166.748,1166.752,1166.754,1166.756,1166.798,1166.8,1166.802,1166.804,1166.807,1166.809,1166.811,1166.853,1166.855,1166.857,1166.859,1166.861,1166.863,1166.865,1166.906,1166.911,1166.913,1166.915,1166.918,1166.92,1166.922,1166.965,1166.969,1166.971,1166.973,1166.979,1166.981,1166.983,1167.024,1167.03,1167.032,1167.034,1167.038,1167.04,1167.042,1167.084,1167.09,1167.092,1167.094,1167.097,1167.099,1167.101,1167.142,1167.144,1167.146,1167.148,1167.151,1167.153,1167.155,1167.2,1167.205,1167.207,1167.209,1167.212,1167.214,1167.216,1167.258,1167.262,1167.264,1167.266,1167.27,1167.272,1167.274,1167.315,1167.317,1167.319,1167.321,1167.323,1167.325,1167.327,1167.37,1167.373,1167.375,1167.377,1167.383,1167.385,1167.387,1167.427,1167.429,1167.431,1167.433,1167.436,1167.438,1167.44,1167.477,1167.48,1167.482,1167.484,1167.488,1167.49,1167.492,1167.535,1167.54,1167.542,1167.544,1167.548,1167.55,1167.552,1167.594,1167.599,1167.601,1167.603,1167.607,1167.609,1167.611,1167.654,1167.66,1167.662,1167.664,1167.667,1167.669,1167.671,1167.714,1167.718,1167.72,1167.722,1167.725,1167.727,1167.729,1167.77,1167.775,1167.777,1167.779,1167.782,1167.784,1167.786,1167.831,1167.836,1167.838,1167.84,1167.843,1167.845,1167.847,1167.888,1167.89,1167.892,1167.896,1167.898,1167.9,1167.906,1167.944,1167.946,1167.948,1167.95,1167.952,1167.954,1167.957,1167.999,1168.001,1168.003,1168.006,1168.008,1168.01,1168.013,1168.055,1168.057,1168.059,1168.062,1168.064,1168.066,1168.07,1168.113,1168.115,1168.117,1168.12,1168.122,1168.124,1168.128,1168.167,1168.169,1168.171,1168.174,1168.176,1168.178,1168.181,1168.22,1168.222,1168.224,1168.227,1168.229,1168.231,1168.235,1168.276,1168.278,1168.28,1168.284,1168.286,1168.288,1168.292,1168.335,1168.337,1168.339,1168.342,1168.344,1168.346,1168.35,1168.39,1168.392,1168.394,1168.397,1168.399,1168.401,1168.405,1168.447,1168.449,1168.451,1168.455,1168.457,1168.459,1168.464,1168.503,1168.505,1168.507,1168.51,1168.512,1168.514,1168.518,1168.559,1168.561,1168.563,1168.567,1168.569,1168.571,1168.575,1168.618,1168.62,1168.622,1168.626,1168.628,1168.63,1168.634,1168.672,1168.674,1168.676,1168.679,1168.681,1168.683,1168.687,1168.729,1168.731,1168.733,1168.737,1168.739,1168.741,1168.745,1168.787,1168.789,1168.791,1168.794,1168.796,1168.798,1168.802,1168.845,1168.847,1168.849,1168.852,1168.854,1168.856,1168.86,1168.904,1168.906,1168.908,1168.912,1168.914,1168.916,1168.92,1168.961,1168.963,1168.965,1168.97,1168.972,1168.974,1168.978,1169.019,1169.021,1169.023,1169.026,1169.028,1169.03,1169.034,1169.078,1169.08,1169.082,1169.086,1169.088,1169.09,1169.094,1169.138,1169.14,1169.142,1169.145,1169.147,1169.149,1169.152,1169.192,1169.194,1169.196,1169.2,1169.202,1169.204,1169.207,1169.25,1169.252,1169.254,1169.258,1169.26,1169.262,1169.266,1169.309,1169.311,1169.313,1169.317,1169.319,1169.321,1169.325,1169.369,1169.371,1169.373,1169.377,1169.379,1169.381,1169.385,1169.424,1169.426,1169.428,1169.431,1169.433,1169.435,1169.439,1169.48,1169.482,1169.484,1169.488,1169.49,1169.492,1169.496,1169.538,1169.54,1169.542,1169.545,1169.547,1169.549,1169.555,1169.594,1169.596,1169.598,1169.602,1169.604,1169.606,1169.61,1169.652,1169.654,1169.658,1169.66,1169.662,1169.666,1169.668,1169.712,1169.714,1169.716,1169.718,1169.722,1169.724,1169.726,1169.769,1169.773,1169.775,1169.777,1169.781,1169.783,1169.785,1169.826,1169.828,1169.83,1169.832,1169.835,1169.837,1169.839,1169.88,1169.885,1169.887,1169.889,1169.892,1169.894,1169.896,1169.937,1169.939,1169.941,1169.943,1169.945,1169.947,1169.949,1169.989,1169.994,1169.996,1169.998,1170.002,1170.004,1170.006,1170.047,1170.052,1170.054,1170.056,1170.06,1170.062,1170.064,1170.103,1170.108,1170.11,1170.112,1170.116,1170.118,1170.12,1170.162,1170.165,1170.167,1170.169,1170.173,1170.175,1170.177,1170.219,1170.224,1170.226,1170.228,1170.232,1170.234,1170.236,1170.279,1170.284,1170.286,1170.288,1170.292,1170.294,1170.296,1170.339,1170.343,1170.345,1170.347,1170.352,1170.354,1170.356,1170.4,1170.404,1170.406,1170.408,1170.412,1170.414,1170.416,1170.457,1170.461,1170.463,1170.465,1170.469,1170.471,1170.473,1170.513,1170.517,1170.519,1170.521,1170.525,1170.527,1170.529,1170.571,1170.577,1170.579,1170.581,1170.585,1170.587,1170.589,1170.627,1170.631,1170.633,1170.635,1170.638,1170.64,1170.642,1170.685,1170.689,1170.691,1170.693,1170.697,1170.699,1170.701,1170.738,1170.742,1170.744,1170.746,1170.75,1170.752,1170.754,1170.795,1170.798,1170.8,1170.802,1170.804,1170.806,1170.808,1170.85,1170.855,1170.857,1170.859,1170.863,1170.865,1170.867,1170.91,1170.915,1170.917,1170.919,1170.922,1170.924,1170.926,1170.968,1170.972,1170.974,1170.976,1170.98,1170.982,1170.984,1171.023,1171.026,1171.028,1171.03,1171.033,1171.035,1171.037,1171.078,1171.083,1171.085,1171.087,1171.09,1171.092,1171.094,1171.137,1171.141,1171.143,1171.145,1171.147,1171.149,1171.152,1171.192,1171.194,1171.196,1171.198,1171.201,1171.203,1171.205,1171.246,1171.25,1171.252,1171.254,1171.258,1171.26,1171.262,1171.302,1171.307,1171.309,1171.311,1171.314,1171.316,1171.318,1171.361,1171.366,1171.368,1171.37,1171.376,1171.378,1171.38,1171.421,1171.423,1171.425,1171.427,1171.43,1171.432,1171.434,1171.476,1171.478,1171.48,1171.482,1171.485,1171.487,1171.489,1171.533,1171.537,1171.539,1171.541,1171.545,1171.547,1171.549,1171.589,1171.591,1171.593,1171.595,1171.599,1171.601,1171.605,1171.65,1171.652,1171.654,1171.657,1171.659,1171.661,1171.665,1171.708,1171.71,1171.712,1171.717,1171.719,1171.721,1171.726,1171.767,1171.769,1171.771,1171.774,1171.776,1171.778,1171.781,1171.822,1171.824,1171.826,1171.83,1171.832,1171.834,1171.839,1171.878,1171.88,1171.882,1171.885,1171.887,1171.889,1171.893,1171.933,1171.935,1171.937,1171.942,1171.944,1171.946,1171.949,1171.989,1171.991,1171.993,1171.996,1171.998,1172.0,1172.002,1172.042,1172.044,1172.046,1172.049,1172.051,1172.053,1172.057,1172.099,1172.101,1172.103,1172.107,1172.109,1172.111,1172.115,1172.159,1172.161,1172.163,1172.167,1172.169,1172.171,1172.175,1172.215,1172.217,1172.219,1172.222,1172.224,1172.226,1172.229,1172.274,1172.276,1172.278,1172.281,1172.283,1172.285,1172.287,1172.329,1172.331,1172.333,1172.336,1172.338,1172.34,1172.345,1172.386,1172.388,1172.39,1172.396,1172.398,1172.4,1172.403,1172.446,1172.448,1172.45,1172.454,1172.456,1172.458,1172.462,1172.505,1172.507,1172.509,1172.512,1172.514,1172.516,1172.52,1172.562,1172.564,1172.566,1172.57,1172.572,1172.574,1172.578,1172.619,1172.621,1172.623,1172.627,1172.629,1172.631,1172.634,1172.677,1172.679,1172.681,1172.685,1172.687,1172.689,1172.694,1172.735,1172.737,1172.739,1172.743,1172.745,1172.747,1172.752,1172.793,1172.795,1172.797,1172.801,1172.803,1172.805,1172.811,1172.849,1172.851,1172.853,1172.855,1172.857,1172.859,1172.863,1172.902,1172.904,1172.906,1172.909,1172.911,1172.913,1172.915,1172.957,1172.959,1172.961,1172.964,1172.966,1172.968,1172.972,1173.015,1173.017,1173.019,1173.022,1173.024,1173.026,1173.03,1173.07,1173.072,1173.074,1173.078,1173.08,1173.082,1173.086,1173.129,1173.131,1173.133,1173.136,1173.138,1173.14,1173.142,1173.185,1173.187,1173.189,1173.192,1173.194,1173.196,1173.201,1173.24,1173.242,1173.244,1173.246,1173.248,1173.25,1173.253,1173.294,1173.296,1173.298,1173.301,1173.303,1173.305,1173.31,1173.352,1173.354,1173.356,1173.359,1173.361,1173.363,1173.365,1173.406,1173.408,1173.41,1173.414,1173.416,1173.418,1173.423,1173.466,1173.468,1173.47,1173.473,1173.475,1173.477,1173.481,1173.523,1173.525,1173.527,1173.53,1173.532,1173.534,1173.537,1173.577,1173.579,1173.581,1173.585,1173.587,1173.589,1173.594,1173.634,1173.636,1173.638,1173.642,1173.644,1173.646,1173.65,1173.688,1173.69,1173.692,1173.695,1173.697,1173.699,1173.702,1173.744,1173.746,1173.748,1173.752,1173.754,1173.756,1173.76,1173.8,1173.802,1173.804,1173.807,1173.809,1173.811,1173.815,1173.855,1173.857,1173.859,1173.865,1173.867,1173.869,1173.872,1173.917,1173.919,1173.921,1173.924,1173.926,1173.928,1173.932,1173.974,1173.976,1173.978,1173.98,1173.983,1173.987,1173.989,1174.03,1174.036,1174.038,1174.04,1174.045,1174.047,1174.049,1174.091,1174.093,1174.095,1174.097,1174.1,1174.102,1174.104,1174.144,1174.15,1174.152,1174.154,1174.157,1174.159,1174.161,1174.203,1174.205,1174.207,1174.209,1174.211,1174.213,1174.215,1174.256,1174.261,1174.263,1174.265,1174.269,1174.271,1174.273,1174.315,1174.319,1174.321,1174.323,1174.325,1174.328,1174.332,1174.374,1174.376,1174.378,1174.382,1174.384,1174.386,1174.39,1174.433,1174.435,1174.437,1174.441,1174.443,1174.445,1174.451,1174.493,1174.495,1174.497,1174.501,1174.503,1174.505,1174.51,1174.553,1174.555,1174.557,1174.56,1174.562,1174.564,1174.569,1174.609,1174.611,1174.613,1174.616,1174.618,1174.62,1174.625,1174.666,1174.668,1174.67,1174.675,1174.677,1174.679,1174.683,1174.724,1174.726,1174.728,1174.73,1174.733,1174.737,1174.739,1174.781,1174.787,1174.789,1174.791,1174.794,1174.796,1174.798,1174.838,1174.843,1174.845,1174.847,1174.853,1174.855,1174.857,1174.9,1174.905,1174.907,1174.909,1174.914,1174.916,1174.918,1174.96,1174.962,1174.964,1174.966,1174.969,1174.971,1174.973,1175.013,1175.015,1175.017,1175.019,1175.022,1175.024,1175.026,1175.066,1175.07,1175.072,1175.074,1175.08,1175.082,1175.084,1175.126,1175.131,1175.133,1175.135,1175.14,1175.142,1175.144,1175.185,1175.187,1175.189,1175.191,1175.194,1175.196,1175.198,1175.238,1175.24,1175.242,1175.244,1175.246,1175.248,1175.25,1175.292,1175.296,1175.298,1175.3,1175.303,1175.305,1175.307,1175.35,1175.355,1175.357,1175.359,1175.364,1175.366,1175.368,1175.41,1175.412,1175.414,1175.416,1175.419,1175.421,1175.423,1175.463,1175.465,1175.467,1175.469,1175.471,1175.473,1175.475,1175.516,1175.521,1175.523,1175.525,1175.529,1175.531,1175.533,1175.575,1175.579,1175.581,1175.583,1175.585,1175.588,1175.592,1175.632,1175.634,1175.636,1175.639,1175.641,1175.643,1175.645,1175.687,1175.689,1175.691,1175.694,1175.696,1175.698,1175.702,1175.745,1175.747,1175.749,1175.752,1175.754,1175.756,1175.759,1175.798,1175.8,1175.802,1175.805,1175.807,1175.809,1175.812,1175.855,1175.857,1175.859,1175.863,1175.865,1175.867,1175.873,1175.913,1175.915,1175.917,1175.92,1175.922,1175.924,1175.928,1175.969,1175.971,1175.973,1175.975,1175.977,1175.979,1175.982,1176.023,1176.025,1176.027,1176.03,1176.032,1176.034,1176.039,1176.08,1176.082,1176.084,1176.087,1176.089,1176.091,1176.095,1176.136,1176.138,1176.14,1176.145,1176.147,1176.149,1176.153,1176.192,1176.194,1176.196,1176.199,1176.201,1176.203,1176.206,1176.247,1176.249,1176.251,1176.255,1176.257,1176.259,1176.262,1176.303,1176.305,1176.307,1176.311,1176.313,1176.315,1176.32,1176.359,1176.361,1176.363,1176.365,1176.367,1176.369,1176.373,1176.414,1176.416,1176.418,1176.422,1176.424,1176.426,1176.43,1176.472,1176.474,1176.476,1176.48,1176.482,1176.484,1176.489,1176.531,1176.533,1176.535,1176.538,1176.54,1176.542,1176.545,1176.587,1176.589,1176.591,1176.594,1176.596,1176.598,1176.602,1176.643,1176.645,1176.651,1176.653,1176.655,1176.658,1176.66,1176.702,1176.708,1176.71,1176.712,1176.715,1176.717,1176.719,1176.761,1176.763,1176.765,1176.767,1176.772,1176.774,1176.776,1176.818,1176.823,1176.825,1176.827,1176.833,1176.835,1176.837,1176.878,1176.883,1176.885,1176.887,1176.892,1176.894,1176.896,1176.937,1176.941,1176.943,1176.945,1176.951,1176.953,1176.955,1176.995,1176.999,1177.001,1177.003,1177.007,1177.009,1177.011,1177.053,1177.056,1177.058,1177.06,1177.063,1177.065,1177.067,1177.108,1177.114,1177.116,1177.118,1177.121,1177.123,1177.125,1177.167,1177.169,1177.171,1177.173,1177.176,1177.178,1177.18,1177.223,1177.228,1177.23,1177.232,1177.238,1177.24,1177.242,1177.283,1177.285,1177.287,1177.289,1177.292,1177.294,1177.296,1177.337,1177.342,1177.344,1177.346,1177.35,1177.352,1177.354,1177.399,1177.404,1177.406,1177.408,1177.411,1177.413,1177.415,1177.456,1177.461,1177.463,1177.465,1177.468,1177.47,1177.472,1177.511,1177.513,1177.515,1177.517,1177.522,1177.524,1177.526,1177.565,1177.567,1177.569,1177.571,1177.574,1177.576,1177.578,1177.623,1177.628,1177.63,1177.632,1177.635,1177.637,1177.639,1177.681,1177.683,1177.685,1177.687,1177.689,1177.691,1177.693,1177.735,1177.741,1177.743,1177.745,1177.748,1177.75,1177.752,1177.795,1177.799,1177.801,1177.803,1177.805,1177.807,1177.81,1177.849,1177.851,1177.853,1177.855,1177.858,1177.86,1177.862,1177.906,1177.911,1177.913,1177.915,1177.918,1177.92,1177.922,1177.964,1177.969,1177.971,1177.973,1177.976,1177.978,1177.98,1178.02,1178.026,1178.028,1178.03,1178.033,1178.035,1178.037,1178.08,1178.085,1178.087,1178.089,1178.093,1178.095,1178.097,1178.138,1178.143,1178.145,1178.147,1178.15,1178.152,1178.154,1178.196,1178.201,1178.203,1178.205,1178.209,1178.211,1178.213,1178.254,1178.257,1178.259,1178.261,1178.265,1178.267,1178.269,1178.313,1178.315,1178.317,1178.319,1178.322,1178.324,1178.326,1178.369,1178.373,1178.375,1178.377,1178.38,1178.382,1178.384,1178.425,1178.429,1178.431,1178.433,1178.436,1178.438,1178.44,1178.481,1178.483,1178.485,1178.487,1178.49,1178.492,1178.494,1178.538,1178.542,1178.544,1178.546,1178.55,1178.552,1178.554,1178.595,1178.598,1178.6,1178.602,1178.605,1178.607,1178.609,1178.651,1178.655,1178.657,1178.659,1178.665,1178.667,1178.669,1178.711,1178.715,1178.717,1178.719,1178.722,1178.724,1178.726,1178.768,1178.773,1178.775,1178.777,1178.78,1178.782,1178.784,1178.826,1178.828,1178.83,1178.832,1178.835,1178.837,1178.839,1178.883,1178.888,1178.89,1178.892,1178.895,1178.897,1178.899,1178.94,1178.944,1178.946,1178.948,1178.951,1178.953,1178.955,1178.997,1179.001,1179.003,1179.005,1179.008,1179.01,1179.012,1179.055,1179.059,1179.061,1179.063,1179.066,1179.068,1179.07,1179.11,1179.114,1179.116,1179.118,1179.123,1179.125,1179.127,1179.168,1179.172,1179.174,1179.176,1179.18,1179.182,1179.184,1179.223,1179.225,1179.227,1179.229,1179.232,1179.234,1179.236,1179.278,1179.28,1179.282,1179.284,1179.287,1179.289,1179.291,1179.332,1179.337,1179.339,1179.341,1179.345,1179.347,1179.349,1179.394,1179.399,1179.401,1179.403,1179.406,1179.408,1179.41,1179.45,1179.455,1179.457,1179.459,1179.462,1179.464,1179.466,1179.507,1179.512,1179.514,1179.516,1179.519,1179.521,1179.523,1179.565,1179.569,1179.571,1179.573,1179.576,1179.578,1179.58,1179.621,1179.623,1179.625,1179.627,1179.63,1179.632,1179.634,1179.678,1179.683,1179.685,1179.687,1179.69,1179.692,1179.694,1179.736,1179.741,1179.743,1179.745,1179.748,1179.75,1179.752,1179.793,1179.797,1179.799,1179.801,1179.805,1179.807,1179.809,1179.851,1179.855,1179.857,1179.859,1179.863,1179.865,1179.867,1179.907,1179.909,1179.911,1179.913,1179.916,1179.918,1179.92,1179.963,1179.966,1179.968,1179.97,1179.974,1179.976,1179.978,1180.019,1180.022,1180.024,1180.026,1180.03,1180.032,1180.034,1180.075,1180.08,1180.082,1180.084,1180.09,1180.092,1180.094,1180.134,1180.137,1180.139,1180.141,1180.145,1180.147,1180.149,1180.191,1180.194,1180.196,1180.198,1180.202,1180.204,1180.206,1180.247,1180.253,1180.255,1180.257,1180.26,1180.262,1180.264,1180.306,1180.311,1180.313,1180.315,1180.319,1180.321,1180.323,1180.362,1180.364,1180.366,1180.368,1180.371,1180.373,1180.375,1180.415,1180.42,1180.422,1180.424,1180.427,1180.429,1180.431,1180.472,1180.478,1180.48,1180.482,1180.485,1180.487,1180.489,1180.531,1180.534,1180.536,1180.538,1180.542,1180.544,1180.546,1180.587,1180.589,1180.591,1180.593,1180.596,1180.598,1180.6,1180.643,1180.648,1180.65,1180.652,1180.658,1180.66,1180.662,1180.702,1180.704,1180.706,1180.708,1180.711,1180.713,1180.715,1180.757,1180.76,1180.762,1180.764,1180.768,1180.77,1180.772,1180.813,1180.816,1180.818,1180.82,1180.822,1180.824,1180.826,1180.867,1180.869,1180.871,1180.873,1180.876,1180.878,1180.88,1180.92,1180.922,1180.924,1180.926,1180.929,1180.931,1180.933,1180.976,1180.98,1180.982,1180.984,1180.988,1180.99,1180.992,1181.033,1181.035,1181.037,1181.039,1181.042,1181.044,1181.046,1181.088,1181.091,1181.093,1181.095,1181.098,1181.1,1181.102,1181.145,1181.147,1181.149,1181.151,1181.154,1181.156,1181.158,1181.2,1181.204,1181.206,1181.208,1181.211,1181.213,1181.215,1181.255,1181.259,1181.261,1181.263,1181.267,1181.269,1181.271,1181.313,1181.315,1181.317,1181.319,1181.323,1181.325,1181.327,1181.368,1181.371,1181.373,1181.375,1181.379,1181.381,1181.383,1181.426,1181.431,1181.433,1181.435,1181.438,1181.44,1181.442,1181.485,1181.491,1181.493,1181.495,1181.498,1181.5,1181.502,1181.545,1181.547,1181.549,1181.551,1181.554,1181.556,1181.558,1181.6,1181.605,1181.607,1181.609,1181.612,1181.614,1181.616,1181.655,1181.659,1181.661,1181.663,1181.666,1181.668,1181.67,1181.712,1181.714,1181.716,1181.718,1181.721,1181.723,1181.725,1181.765,1181.77,1181.772,1181.774,1181.777,1181.779,1181.781,1181.823,1181.828,1181.83,1181.832,1181.835,1181.837,1181.839,1181.88,1181.885,1181.887,1181.889,1181.892,1181.894,1181.896,1181.935,1181.938,1181.94,1181.942,1181.948,1181.95,1181.952,1181.992,1181.997,1181.999,1182.001,1182.004,1182.006,1182.008,1182.047,1182.053,1182.055,1182.057,1182.06,1182.062,1182.064,1182.105,1182.109,1182.111,1182.113,1182.116,1182.118,1182.12,1182.161,1182.163,1182.165,1182.167,1182.17,1182.172,1182.174,1182.216,1182.221,1182.223,1182.225,1182.228,1182.23,1182.232,1182.273,1182.275,1182.277,1182.279,1182.283,1182.285,1182.287,1182.328,1182.333,1182.335,1182.337,1182.34,1182.342,1182.344,1182.386,1182.388,1182.39,1182.392,1182.397,1182.399,1182.401,1182.442,1182.447,1182.449,1182.451,1182.457,1182.459,1182.461,1182.501,1182.505,1182.507,1182.509,1182.513,1182.515,1182.517,1182.559,1182.561,1182.563,1182.565,1182.568,1182.57,1182.572,1182.615,1182.617,1182.619,1182.621,1182.624,1182.626,1182.628,1182.67,1182.672,1182.674,1182.676,1182.679,1182.681,1182.683,1182.724,1182.728,1182.73,1182.732,1182.736,1182.738,1182.74,1182.783,1182.785,1182.787,1182.789,1182.792,1182.794,1182.796,1182.837,1182.839,1182.841,1182.843,1182.846,1182.848,1182.85,1182.891,1182.895,1182.897,1182.899,1182.903,1182.905,1182.907,1182.948,1182.953,1182.955,1182.957,1182.96,1182.962,1182.964,1183.005,1183.01,1183.012,1183.014,1183.018,1183.02,1183.022,1183.065,1183.07,1183.072,1183.074,1183.077,1183.079,1183.081,1183.122,1183.126,1183.128,1183.13,1183.134,1183.136,1183.138,1183.182,1183.187,1183.189,1183.191,1183.194,1183.196,1183.198,1183.241,1183.245,1183.247,1183.249,1183.253,1183.255,1183.257,1183.298,1183.3,1183.302,1183.304,1183.307,1183.309,1183.311,1183.353,1183.355,1183.357,1183.359,1183.363,1183.365,1183.367,1183.408,1183.413,1183.415,1183.417,1183.42,1183.422,1183.424,1183.466,1183.468,1183.47,1183.472,1183.477,1183.479,1183.481,1183.521,1183.523,1183.525,1183.527,1183.53,1183.532,1183.534,1183.574,1183.578,1183.58,1183.582,1183.586,1183.588,1183.59,1183.632,1183.637,1183.639,1183.641,1183.644,1183.646,1183.648,1183.69,1183.692,1183.694,1183.696,1183.701,1183.703,1183.705,1183.746,1183.748,1183.75,1183.752,1183.755,1183.757,1183.759,1183.799,1183.802,1183.804,1183.806,1183.809,1183.811,1183.813,1183.852,1183.857,1183.859,1183.861,1183.865,1183.867,1183.869,1183.91,1183.914,1183.916,1183.918,1183.922,1183.924,1183.926,1183.968,1183.972,1183.974,1183.976,1183.98,1183.982,1183.984,1184.027,1184.03,1184.032,1184.034,1184.038,1184.04,1184.042,1184.082,1184.087,1184.089,1184.091,1184.095,1184.097,1184.099,1184.139,1184.144,1184.146,1184.148,1184.154,1184.156,1184.158,1184.2,1184.204,1184.206,1184.208,1184.213,1184.215,1184.217,1184.258,1184.263,1184.265,1184.267,1184.271,1184.273,1184.275,1184.315,1184.32,1184.322,1184.324,1184.327,1184.329,1184.331,1184.372,1184.375,1184.377,1184.379,1184.382,1184.384,1184.386,1184.428,1184.433,1184.435,1184.437,1184.44,1184.442,1184.444,1184.485,1184.49,1184.492,1184.494,1184.5,1184.502,1184.504,1184.545,1184.549,1184.551,1184.553,1184.558,1184.56,1184.562,1184.605,1184.611,1184.613,1184.615,1184.618,1184.62,1184.622,1184.665,1184.667,1184.669,1184.671,1184.675,1184.677,1184.679,1184.718,1184.72,1184.722,1184.724,1184.728,1184.73,1184.732,1184.77,1184.772,1184.774,1184.776,1184.779,1184.781,1184.783,1184.824,1184.826,1184.828,1184.83,1184.833,1184.835,1184.837,1184.88,1184.885,1184.887,1184.889,1184.893,1184.895,1184.897,1184.938,1184.94,1184.942,1184.944,1184.949,1184.951,1184.953,1184.993,1184.995,1184.997,1184.999,1185.002,1185.004,1185.006,1185.05,1185.052,1185.054,1185.056,1185.059,1185.061,1185.063,1185.105,1185.109,1185.111,1185.113,1185.117,1185.119,1185.121,1185.16,1185.165,1185.167,1185.169,1185.175,1185.177,1185.179,1185.22,1185.224,1185.226,1185.228,1185.234,1185.236,1185.238,1185.28,1185.286,1185.288,1185.29,1185.293,1185.295,1185.297,1185.34,1185.344,1185.346,1185.348,1185.352,1185.354,1185.356,1185.397,1185.399,1185.401,1185.403,1185.406,1185.408,1185.41,1185.45,1185.454,1185.456,1185.458,1185.462,1185.464,1185.466,1185.505,1185.51,1185.512,1185.514,1185.52,1185.522,1185.524,1185.565,1185.567,1185.569,1185.571,1185.574,1185.576,1185.578,1185.62,1185.624,1185.626,1185.628,1185.632,1185.634,1185.636,1185.678,1185.683,1185.685,1185.687,1185.691,1185.693,1185.695,1185.734,1185.736,1185.738,1185.74,1185.742,1185.744,1185.746,1185.788,1185.793,1185.795,1185.797,1185.8,1185.802,1185.804,1185.845,1185.847,1185.849,1185.851,1185.854,1185.856,1185.858,1185.9,1185.905,1185.907,1185.909,1185.912,1185.914,1185.916,1185.957,1185.963,1185.965,1185.967,1185.97,1185.972,1185.974,1186.017,1186.019,1186.022,1186.026,1186.028,1186.03,1186.034,1186.071,1186.073,1186.075,1186.079,1186.081,1186.083,1186.085,1186.125,1186.127,1186.129,1186.131,1186.133,1186.135,1186.138,1186.177,1186.179,1186.181,1186.185,1186.187,1186.189,1186.193,1186.234,1186.236,1186.238,1186.241,1186.243,1186.245,1186.25,1186.29,1186.292,1186.294,1186.299,1186.301,1186.303,1186.306,1186.35,1186.352,1186.354,1186.358,1186.36,1186.362,1186.366,1186.409,1186.411,1186.413,1186.416,1186.418,1186.42,1186.423,1186.462,1186.464,1186.466,1186.469,1186.471,1186.473,1186.478,1186.518,1186.52,1186.522,1186.526,1186.528,1186.53,1186.536,1186.578,1186.58,1186.582,1186.585,1186.587,1186.589,1186.593,1186.638,1186.64,1186.642,1186.645,1186.647,1186.649,1186.653,1186.694,1186.696,1186.698,1186.704,1186.706,1186.708,1186.711,1186.755,1186.757,1186.759,1186.762,1186.764,1186.766,1186.77,1186.813,1186.815,1186.817,1186.823,1186.825,1186.827,1186.83,1186.873,1186.875,1186.877,1186.88
