0,1,2,3,4,5,6,7,8,9,10,11,12,13,14,15,16,17,18,19,20,21,22,23,24,25,26,27,28,29,30,31,32,33,34,35,36,37,38,39,40,41,42,43,44,45,46,47,48,49,50,51,52,53,54,55,56,57,58,59,60,61,62,63,64,65,66,67,68,69,70,71,72,73,74,75,76,77,78,79,80,81,82,83,84,85,86,87,88,89,90,91,92,93,94,95,96,97,98,99,100,101,102,103,104,105,106,107,108,109,110,111,112,113,114,115,116,117,118,119,120,121,122,123,124,125,126,127,128,129,130,131,132,133,134,135,136,137,138,139,140,141,142,143,144,145,146,147,148,149,150,151,152,153,154,155,156,157,158,159,160,161,162,163,164,165,166,167,168,169,170,171,172,173,174,175,176,177,178,179,180,181,182,183,184,185,186,187,188,189,190,191,192,193,194,195,196,197,198,199,200,201,202,203,204,205,206,207,208,209,210,211,212,213,214,215,216,217,218,219,220,221,222,223,224,225,226,227,228,229,230,231,232,233,234,235,236,237,238,239,240,241,242,243,244,245,246,247,248,249,250,251,252,253,254,255,256,257,258,259,260,261,262,263,264,265,266,267,268,269,270,271,272,273,274,275,276,277,278,279,280,281,282,283,284,285,286,287,288,289,290,291,292,293,294,295,296,297,298,299,300,301,302,303,304,305,306,307,308,309,310,311,312,313,314,315,316,317,318,319,320,321,322,323,324,325,326,327,328,329,330,331,332,333,334,335,336,337,338,339,340,341,342,343,344,345,346,347,348,349,350,351,352,353,354,355,356,357,358,359,360,361,362,363,364,365,366,367,368,369,370,371,372,373,374,375,376,377,378,379,380,381,382,383,384,385,386,387,388,389,390,391,392,393,394,395,396,397,398,399,400,401,402,403,404,405,406,407,408,409,410,411,412,413,414,415,416,417,418,419,420,421,422,423,424,425,426,427,428,429,430,431,432,433,434,435,436,437,438,439,440,441,442,443,444,445,446,447,448,449,450,451,452,453,454,455,456,457,458,459,460,461,462,463,464,465,466,467,468,469,470,471,472,473,474,475,476,477,478,479,480,481,482,483,484,485,486,487,488,489,490,491,492,493,494,495,496,497,498,499,500,501,502,503,504,505,506,507,508,509,510,511,512,513,514,515,516,517,518,519,520,521,522,523,524,525,526,527,528,529,530,531,532,533,534,535,536,537,538,539,540,541,542,543,544,545,546,547,548,549,550,551,552,553,554,555,556,557,558,559,560,561,562,563,564,565,566,567,568,569,570,571,572,573,574,575,576,577,578,579,580,581,582,583,584,585,586,587,588,589,590,591,592,593,594,595,596,597,598,599,600,601,602,603,604,605,606,607,608,609,610,611,612,613,614,615,616,617,618,619,620,621,622,623,624,625,626,627,628,629,630,631,632,633,634,635,636,637,638,639,640,641,642,643,644,645,646,647,648,649,650,651,652,653,654,655,656,657,658,659,660,661,662,663,664,665,666,667,668,669,670,671,672,673,674,675,676,677,678,679,680,681,682,683,684,685,686,687,688,689,690,691,692,693,694,695,696,697,698,699,700,701,702,703,704,705,706,707,708,709,710,711,712,713,714,715,716,717,718,719,720,721,722,723,724,725,726,727,728,729,730,731,732,733,734,735,736,737,738,739,740,741,742,743,744,745,746,747,748,749,750,751,752,753,754,755,756,757,758,759,760,761,762,763,764,765,766,767,768,769,770,771,772,773,774,775,776,777,778,779,780,781,782,783,784,785,786,787,788,789,790,791,792,793,794,795,796,797,798,799,800,801,802,803,804,805,806,807,808,809,810,811,812,813,814,815,816,817,818,819,820,821,822,823,824,825,826,827,828,829,830,831,832,833,834,835,836,837,838,839,840,841,842,843,844,845,846,847,848,849,850,851,852,853,854,855,856,857,858,859,860,861,862,863,864,865,866,867,868,869,870,871,872,873,874,875,876,877,878,879,880,881,882,883,884,885,886,887,888,889,890,891,892,893,894,895,896,897,898,899,900,901,902,903,904,905,906,907,908,909,910,911,912,913,914,915,916,917,918,919,920,921,922,923,924,925,926,927,928,929,930,931,932,933,934,935,936,937,938,939,940,941,942,943,944,945,946,947,948,949,950,951,952,953,954,955,956,957,958,959,960,961,962,963,964,965,966,967,968,969,970,971,972,973,974,975,976,977,978,979,980,981,982,983,984,985,986,987,988,989,990,991,992,993,994,995,996,997,998,999,1000,1001,1002,1003,1004,1005,1006,1007,1008,1009,1010,1011,1012,1013,1014,1015,1016,1017,1018,1019,1020,1021,1022,1023,1024,1025,1026,1027,1028,1029,1030,1031,1032,1033,1034,1035,1036,1037,1038,1039,1040,1041,1042,1043,1044,1045,1046,1047,1048,1049,1050,1051,1052,1053,1054,1055,1056,1057,1058,1059,1060,1061,1062,1063,1064,1065,1066,1067,1068,1069,1070,1071,1072,1073,1074,1075,1076,1077,1078,1079,1080,1081,1082,1083,1084,1085,1086,1087,1088,1089,1090,1091,1092,1093,1094,1095,1096,1097,1098,1099,1100,1101,1102,1103,1104,1105,1106,1107,1108,1109,1110,1111,1112,1113,1114,1115,1116,1117,1118,1119,1120,1121,1122,1123,1124,1125,1126,1127,1128,1129,1130,1131,1132,1133,1134,1135,1136,1137,1138,1139,1140,1141,1142,1143,1144,1145,1146,1147,1148,1149,1150,1151,1152,1153,1154,1155,1156,1157,1158,1159,1160,1161,1162,1163,1164,1165,1166,1167,1168,1169,1170,1171,1172,1173,1174,1175,1176,1177,1178,1179,1180,1181,1182,1183,1184,1185,1186,1187,1188,1189,1190,1191,1192,1193,1194,1195,1196,1197,1198,1199,1200,1201,1202,1203,1204,1205,1206,1207,1208,1209,1210,1211,1212,1213,1214,1215,1216,1217,1218,1219,1220,1221,1222,1223,1224,1225,1226,1227,1228,1229,1230,1231,1232,1233,1234,1235,1236,1237,1238,1239,1240,1241,1242,1243,1244,1245,1246,1247,1248,1249,1250,1251,1252,1253,1254,1255,1256,1257,1258,1259,1260,1261,1262,1263,1264,1265,1266,1267,1268,1269,1270,1271,1272,1273,1274,1275,1276,1277,1278,1279,1280,1281,1282,1283,1284,1285,1286,1287,1288,1289,1290,1291,1292,1293,1294,1295,1296,1297,1298,1299,1300,1301,1302,1303,1304,1305,1306,1307,1308,1309,1310,1311,1312,1313,1314,1315,1316,1317,1318,1319,1320,1321,1322,1323,1324,1325,1326,1327,1328,1329,1330,1331,1332,1333,1334,1335,1336,1337,1338,1339,1340,1341,1342,1343,1344,1345,1346,1347,1348,1349,1350,1351,1352,1353,1354,1355,1356,1357,1358,1359,1360,1361,1362,1363,1364,1365,1366,1367,1368,1369,1370,1371,1372,1373,1374,1375,1376,1377,1378,1379,1380,1381,1382,1383,1384,1385,1386,1387,1388,1389,1390,1391,1392,1393,1394,1395,1396,1397,1398,1399,1400,1401,1402,1403,1404,1405,1406,1407,1408,1409,1410,1411,1412,1413,1414,1415,1416,1417,1418,1419,1420,1421,1422,1423,1424,1425,1426,1427,1428,1429,1430,1431,1432,1433,1434,1435,1436,1437,1438,1439,1440,1441,1442,1443,1444,1445,1446,1447,1448,1449,1450,1451,1452,1453,1454,1455,1456,1457,1458,1459,1460,1461,1462,1463,1464,1465,1466,1467,1468,1469,1470,1471,1472,1473,1474,1475,1476,1477,1478,1479,1480,1481,1482,1483,1484,1485,1486,1487,1488,1489,1490,1491,1492,1493,1494,1495,1496,1497,1498,1499,1500,1501,1502,1503,1504,1505,1506,1507,1508,1509,1510,1511,1512,1513,1514,1515,1516,1517,1518,1519,1520,1521,1522,1523,1524,1525,1526,1527,1528,1529,1530,1531,1532,1533,1534,1535,1536,1537,1538,1539,1540,1541,1542,1543,1544,1545,1546,1547,1548,1549,1550,1551,1552,1553,1554,1555,1556,1557,1558,1559,1560,1561,1562,1563,1564,1565,1566,1567,1568,1569,1570,1571,1572,1573,1574,1575,1576,1577,1578,1579,1580,1581,1582,1583,1584,1585,1586,1587,1588,1589,1590,1591,1592,1593,1594,1595,1596,1597,1598,1599,1600,1601,1602,1603,1604,1605,1606,1607,1608,1609,1610,1611,1612,1613,1614,1615,1616,1617,1618,1619,1620,1621,1622,1623,1624,1625,1626,1627,1628,1629,1630,1631,1632,1633,1634,1635,1636,1637,1638,1639,1640,1641,1642,1643,1644,1645,1646,1647,1648,1649,1650,1651,1652,1653,1654,1655,1656,1657,1658,1659,1660,1661,1662,1663,1664,1665,1666,1667,1668,1669,1670,1671,1672,1673,1674,1675,1676,1677,1678,1679,1680,1681,1682,1683,1684,1685,1686,1687,1688,1689,1690,1691,1692,1693,1694,1695,1696,1697,1698,1699,1700,1701,1702,1703,1704,1705,1706,1707,1708,1709,1710,1711,1712,1713,1714,1715,1716,1717,1718,1719,1720,1721,1722,1723,1724,1725,1726,1727,1728,1729,1730,1731,1732,1733,1734,1735,1736,1737,1738,1739,1740,1741,1742,1743,1744,1745,1746,1747,1748,1749,1750,1751,1752,1753,1754,1755,1756,1757,1758,1759,1760,1761,1762,1763,1764,1765,1766,1767,1768,1769,1770,1771,1772,1773,1774,1775,1776,1777,1778,1779,1780,1781,1782,1783,1784,1785,1786,1787,1788,1789,1790,1791,1792,1793,1794,1795,1796,1797,1798,1799,1800,1801,1802,1803,1804,1805,1806,1807,1808,1809,1810,1811,1812,1813,1814,1815,1816,1817,1818,1819,1820,1821,1822,1823,1824,1825,1826,1827,1828,1829,1830,1831,1832,1833,1834,1835,1836,1837,1838,1839,1840,1841,1842,1843,1844,1845,1846,1847,1848,1849,1850,1851,1852,1853,1854,1855,1856,1857,1858,1859,1860,1861,1862,1863,1864,1865,1866,1867,1868,1869,1870,1871,1872,1873,1874,1875,1876,1877,1878,1879,1880,1881,1882,1883,1884,1885,1886,1887,1888,1889,1890,1891,1892,1893,1894,1895,1896,1897,1898,1899,1900,1901,1902,1903,1904,1905,1906,1907,1908,1909,1910,1911,1912,1913,1914,1915,1916,1917,1918,1919,1920,1921,1922,1923,1924,1925,1926,1927,1928,1929,1930,1931,1932,1933,1934,1935,1936,1937,1938,1939,1940,1941,1942,1943,1944,1945,1946,1947,1948,1949,1950,1951,1952,1953,1954,1955,1956,1957,1958,1959,1960,1961,1962,1963,1964,1965,1966,1967,1968,1969,1970,1971,1972,1973,1974,1975,1976,1977,1978,1979,1980,1981,1982,1983,1984,1985,1986,1987,1988,1989,1990,1991,1992,1993,1994,1995,1996,1997,1998,1999,2000,2001,2002,2003,2004,2005,2006,2007,2008,2009,2010,2011,2012,2013,2014,2015,2016,2017,2018,2019,2020,2021,2022,2023,2024,2025,2026,2027,2028,2029,2030,2031,2032,2033,2034,2035,2036,2037,2038,2039,2040,2041,2042,2043,2044,2045,2046,2047,2048,2049,2050,2051,2052,2053,2054,2055,2056,2057,2058,2059,2060,2061,2062,2063,2064,2065,2066,2067,2068,2069,2070,2071,2072,2073,2074,2075,2076,2077,2078,2079,2080,2081,2082,2083,2084,2085,2086,2087,2088,2089,2090,2091,2092,2093,2094,2095,2096,2097,2098,2099,2100,2101,2102,2103,2104,2105,2106,2107,2108,2109,2110,2111,2112,2113,2114,2115,2116,2117,2118,2119,2120,2121,2122,2123,2124,2125,2126,2127,2128,2129,2130,2131,2132,2133,2134,2135,2136,2137,2138,2139,2140,2141,2142,2143,2144,2145,2146,2147,2148,2149,2150,2151,2152,2153,2154,2155,2156,2157,2158,2159,2160,2161,2162,2163,2164,2165,2166,2167,2168,2169,2170,2171,2172,2173,2174,2175,2176,2177,2178,2179,2180,2181,2182,2183,2184,2185,2186,2187,2188,2189,2190,2191,2192,2193,2194,2195,2196,2197,2198,2199,2200,2201,2202,2203,2204,2205,2206,2207,2208,2209,2210,2211,2212,2213,2214,2215,2216,2217,2218,2219,2220,2221,2222,2223,2224,2225,2226,2227,2228,2229,2230,2231,2232,2233,2234,2235,2236,2237,2238,2239,2240,2241,2242,2243,2244,2245,2246,2247,2248,2249,2250,2251,2252,2253,2254,2255,2256,2257,2258,2259,2260,2261,2262,2263,2264,2265,2266,2267,2268,2269,2270,2271,2272,2273,2274,2275,2276,2277,2278,2279,2280,2281,2282,2283,2284,2285,2286,2287,2288,2289,2290,2291,2292,2293,2294,2295,2296,2297,2298,2299,2300,2301,2302,2303,2304,2305,2306,2307,2308,2309,2310,2311,2312,2313,2314,2315,2316,2317,2318,2319,2320,2321,2322,2323,2324,2325,2326,2327,2328,2329,2330,2331,2332,2333,2334,2335,2336,2337,2338,2339,2340,2341,2342,2343,2344,2345,2346,2347,2348,2349,2350,2351,2352,2353,2354,2355,2356,2357,2358,2359,2360,2361,2362,2363,2364,2365,2366,2367,2368,2369,2370,2371,2372,2373,2374,2375,2376,2377,2378,2379,2380,2381,2382,2383,2384,2385,2386,2387,2388,2389,2390,2391,2392,2393,2394,2395,2396,2397,2398,2399,2400,2401,2402,2403,2404,2405,2406,2407,2408,2409,2410,2411,2412,2413,2414,2415,2416,2417,2418,2419,2420,2421,2422,2423,2424,2425,2426,2427,2428,2429,2430,2431,2432,2433,2434,2435,2436,2437,2438,2439,2440,2441,2442,2443,2444,2445,2446,2447,2448,2449,2450,2451,2452,2453,2454,2455,2456,2457,2458,2459,2460,2461,2462,2463,2464,2465,2466,2467,2468,2469,2470,2471,2472,2473,2474,2475,2476,2477,2478,2479,2480,2481,2482,2483,2484,2485,2486,2487,2488,2489,2490,2491,2492,2493,2494,2495,2496,2497,2498,2499,2500,2501,2502,2503,2504,2505,2506,2507,2508,2509,2510,2511,2512,2513,2514,2515,2516,2517,2518,2519,2520,2521,2522,2523,2524,2525,2526,2527,2528,2529,2530,2531,2532,2533,2534,2535,2536,2537,2538,2539,2540,2541,2542,2543,2544,2545,2546,2547,2548,2549,2550,2551,2552,2553,2554,2555,2556,2557,2558,2559,2560,2561,2562,2563,2564,2565,2566,2567,2568,2569,2570,2571,2572,2573,2574,2575,2576,2577,2578,2579,2580,2581,2582,2583,2584,2585,2586,2587,2588,2589,2590,2591,2592,2593,2594,2595,2596,2597,2598,2599,2600,2601,2602,2603,2604,2605,2606,2607,2608,2609,2610,2611,2612,2613,2614,2615,2616,2617,2618,2619,2620,2621,2622,2623,2624,2625,2626,2627,2628,2629,2630,2631,2632,2633,2634,2635,2636,2637,2638,2639,2640,2641,2642,2643,2644,2645,2646,2647,2648,2649,2650,2651,2652,2653,2654,2655,2656,2657,2658,2659,2660,2661,2662,2663,2664,2665,2666,2667,2668,2669,2670,2671,2672,2673,2674,2675,2676,2677,2678,2679,2680,2681,2682,2683,2684,2685,2686,2687,2688,2689,2690,2691,2692,2693,2694,2695,2696,2697,2698,2699,2700,2701,2702,2703,2704,2705,2706,2707,2708,2709,2710,2711,2712,2713,2714,2715,2716,2717,2718,2719,2720,2721,2722,2723,2724,2725,2726,2727,2728,2729,2730,2731,2732,2733,2734,2735,2736,2737,2738,2739,2740,2741,2742,2743,2744,2745,2746,2747,2748,2749,2750,2751,2752,2753,2754,2755,2756,2757,2758,2759,2760,2761,2762,2763,2764,2765,2766,2767,2768,2769,2770,2771,2772,2773,2774,2775,2776,2777,2778,2779,2780,2781,2782,2783,2784,2785,2786,2787,2788,2789,2790,2791,2792,2793,2794,2795,2796,2797,2798,2799,2800,2801,2802,2803,2804,2805,2806,2807,2808,2809,2810,2811,2812,2813,2814,2815,2816,2817,2818,2819,2820,2821,2822,2823,2824,2825,2826,2827,2828,2829,2830,2831,2832,2833,2834,2835,2836,2837,2838,2839,2840,2841,2842,2843,2844,2845,2846,2847,2848,2849,2850,2851,2852,2853,2854,2855,2856,2857,2858,2859,2860,2861,2862,2863,2864,2865,2866,2867,2868,2869,2870,2871,2872,2873,2874,2875,2876,2877,2878,2879,2880,2881,2882,2883,2884,2885,2886,2887,2888,2889,2890,2891,2892,2893,2894,2895,2896,2897,2898,2899,2900,2901,2902,2903,2904,2905,2906,2907,2908,2909,2910,2911,2912,2913,2914,2915,2916,2917,2918,2919,2920,2921,2922,2923,2924,2925,2926,2927,2928,2929,2930,2931,2932,2933,2934,2935,2936,2937,2938,2939,2940,2941,2942,2943,2944,2945,2946,2947,2948,2949,2950,2951,2952,2953,2954,2955,2956,2957,2958,2959,2960,2961,2962,2963,2964,2965,2966,2967,2968,2969,2970,2971,2972,2973,2974,2975,2976,2977,2978,2979,2980,2981,2982,2983,2984,2985,2986,2987,2988,2989,2990,2991,2992,2993,2994,2995,2996,2997,2998,2999,3000,3001,3002,3003,3004,3005,3006,3007,3008,3009,3010,3011,3012,3013,3014,3015,3016,3017,3018,3019,3020,3021,3022,3023,3024,3025,3026,3027,3028,3029,3030,3031,3032,3033,3034,3035,3036,3037,3038,3039,3040,3041,3042,3043,3044,3045,3046,3047,3048,3049,3050,3051,3052,3053,3054,3055,3056,3057,3058,3059,3060,3061,3062,3063,3064,3065,3066,3067,3068,3069,3070,3071,3072,3073,3074,3075,3076,3077,3078,3079,3080,3081,3082,3083,3084,3085,3086,3087,3088,3089,3090,3091,3092,3093,3094,3095,3096,3097,3098,3099,3100,3101,3102,3103,3104,3105,3106,3107,3108,3109,3110,3111,3112,3113,3114,3115,3116,3117,3118,3119,3120,3121,3122,3123,3124,3125,3126,3127,3128,3129,3130,3131,3132,3133,3134,3135,3136,3137,3138,3139,3140,3141,3142,3143,3144,3145,3146,3147,3148,3149,3150,3151,3152,3153,3154,3155,3156,3157,3158,3159,3160,3161,3162,3163,3164,3165,3166,3167,3168,3169,3170,3171,3172,3173,3174,3175,3176,3177,3178,3179,3180,3181,3182,3183,3184,3185,3186,3187,3188,3189,3190,3191,3192,3193,3194,3195,3196,3197,3198,3199,3200,3201,3202,3203,3204,3205,3206,3207,3208,3209,3210,3211,3212,3213,3214,3215,3216,3217,3218,3219,3220,3221,3222,3223,3224,3225,3226,3227,3228,3229,3230,3231,3232,3233,3234,3235,3236,3237,3238,3239,3240,3241,3242,3243,3244,3245,3246,3247,3248,3249,3250,3251,3252,3253,3254,3255,3256,3257,3258,3259,3260,3261,3262,3263,3264,3265,3266,3267,3268,3269,3270,3271,3272,3273,3274,3275,3276,3277,3278,3279,3280,3281,3282,3283,3284,3285,3286,3287,3288,3289,3290,3291,3292,3293,3294,3295,3296,3297,3298,3299,3300,3301,3302,3303,3304,3305,3306,3307,3308,3309,3310,3311,3312,3313,3314,3315,3316,3317,3318,3319,3320,3321,3322,3323,3324,3325,3326,3327,3328,3329,3330,3331,3332,3333,3334,3335,3336,3337,3338,3339,3340,3341,3342,3343,3344,3345,3346,3347,3348,3349,3350,3351,3352,3353,3354,3355,3356,3357,3358,3359,3360,3361,3362,3363,3364,3365,3366,3367,3368,3369,3370,3371,3372,3373,3374,3375,3376,3377,3378,3379,3380,3381,3382,3383,3384,3385,3386,3387,3388,3389,3390,3391,3392,3393,3394,3395,3396,3397,3398,3399,3400,3401,3402,3403,3404,3405,3406,3407,3408,3409,3410,3411,3412,3413,3414,3415,3416,3417,3418,3419,3420,3421,3422,3423,3424,3425,3426,3427,3428,3429,3430,3431,3432,3433,3434,3435,3436,3437,3438,3439,3440,3441,3442,3443,3444,3445,3446,3447,3448,3449,3450,3451,3452,3453,3454,3455,3456,3457,3458,3459,3460,3461,3462,3463,3464,3465,3466,3467,3468,3469,3470,3471,3472,3473,3474,3475,3476,3477,3478,3479,3480,3481,3482,3483,3484,3485,3486,3487,3488,3489,3490,3491,3492,3493,3494,3495,3496,3497,3498,3499,3500,3501,3502,3503,3504,3505,3506,3507,3508,3509,3510,3511,3512,3513,3514,3515,3516,3517,3518,3519,3520,3521,3522,3523,3524,3525,3526,3527,3528,3529,3530,3531,3532,3533,3534,3535,3536,3537,3538,3539,3540,3541,3542,3543,3544,3545,3546,3547,3548,3549,3550,3551,3552,3553,3554,3555,3556,3557,3558,3559,3560,3561,3562,3563,3564,3565,3566,3567,3568,3569,3570,3571,3572,3573,3574,3575,3576,3577,3578,3579,3580,3581,3582,3583,3584,3585,3586,3587,3588,3589,3590,3591,3592,3593,3594,3595,3596,3597,3598,3599,3600,3601,3602,3603,3604,3605,3606,3607,3608,3609,3610,3611,3612,3613,3614,3615,3616,3617,3618,3619,3620,3621,3622,3623,3624,3625,3626,3627,3628,3629,3630,3631,3632,3633,3634,3635,3636,3637,3638,3639,3640,3641,3642,3643,3644,3645,3646,3647,3648,3649,3650,3651,3652,3653,3654,3655,3656,3657,3658,3659,3660,3661,3662,3663,3664,3665,3666,3667,3668,3669,3670,3671,3672,3673,3674,3675,3676,3677,3678,3679,3680,3681,3682,3683,3684,3685,3686,3687,3688,3689,3690,3691,3692,3693,3694,3695,3696,3697,3698,3699,3700,3701,3702,3703,3704,3705,3706,3707,3708,3709,3710,3711,3712,3713,3714,3715,3716,3717,3718,3719,3720,3721,3722,3723,3724,3725,3726,3727,3728,3729,3730,3731,3732,3733,3734,3735,3736,3737,3738,3739,3740,3741,3742,3743,3744,3745,3746,3747,3748,3749,3750,3751,3752,3753,3754,3755,3756,3757,3758,3759,3760,3761,3762,3763,3764,3765,3766,3767,3768,3769,3770,3771,3772,3773,3774,3775,3776,3777,3778,3779,3780,3781,3782,3783,3784,3785,3786,3787,3788,3789,3790,3791,3792,3793,3794,3795,3796,3797,3798,3799,3800,3801,3802,3803,3804,3805,3806,3807,3808,3809,3810,3811,3812,3813,3814,3815,3816,3817,3818,3819,3820,3821,3822,3823,3824,3825,3826,3827,3828,3829,3830,3831,3832,3833,3834,3835,3836,3837,3838,3839,3840,3841,3842,3843,3844,3845,3846,3847,3848,3849,3850,3851,3852,3853,3854,3855,3856,3857,3858,3859,3860,3861,3862,3863,3864,3865,3866,3867,3868,3869,3870,3871,3872,3873,3874,3875,3876,3877,3878,3879,3880,3881,3882,3883,3884,3885,3886,3887,3888,3889,3890,3891,3892,3893,3894,3895,3896,3897,3898,3899,3900,3901,3902,3903,3904,3905,3906,3907,3908,3909,3910,3911,3912,3913,3914,3915,3916,3917,3918,3919,3920,3921,3922,3923,3924,3925,3926,3927,3928,3929,3930,3931,3932,3933,3934,3935,3936,3937,3938,3939,3940,3941,3942,3943,3944,3945,3946,3947,3948,3949,3950,3951,3952,3953,3954,3955,3956,3957,3958,3959,3960,3961,3962,3963,3964,3965,3966,3967,3968,3969,3970,3971,3972,3973,3974,3975,3976,3977,3978,3979,3980,3981,3982,3983,3984,3985,3986,3987,3988,3989,3990,3991,3992,3993,3994,3995,3996,3997,3998,3999,4000,4001,4002,4003,4004,4005,4006,4007,4008,4009,4010,4011,4012,4013,4014,4015,4016,4017,4018,4019,4020,4021,4022,4023,4024,4025,4026,4027,4028,4029,4030,4031,4032,4033,4034,4035,4036,4037,4038,4039,4040,4041,4042,4043,4044,4045,4046,4047,4048,4049,4050,4051,4052,4053,4054,4055,4056,4057,4058,4059,4060,4061,4062,4063,4064,4065,4066,4067,4068,4069,4070,4071,4072,4073,4074,4075,4076,4077,4078,4079,4080,4081,4082,4083,4084,4085,4086,4087,4088,4089,4090,4091,4092,4093,4094,4095,4096,4097,4098,4099,4100,4101,4102,4103,4104,4105,4106,4107,4108,4109,4110,4111,4112,4113,4114,4115,4116,4117,4118,4119,4120,4121,4122,4123,4124,4125,4126,4127,4128,4129,4130,4131,4132,4133,4134,4135,4136,4137,4138,4139,4140,4141,4142,4143,4144,4145,4146,4147,4148,4149,4150,4151,4152,4153,4154,4155,4156,4157,4158,4159,4160,4161,4162,4163,4164,4165,4166,4167,4168,4169,4170,4171,4172,4173,4174,4175,4176,4177,4178,4179,4180,4181,4182,4183,4184,4185,4186,4187,4188,4189,4190,4191,4192,4193,4194,4195,4196,4197,4198,4199,4200,4201,4202,4203,4204,4205,4206,4207,4208,4209,4210,4211,4212,4213,4214,4215,4216,4217,4218,4219,4220,4221,4222,4223,4224,4225,4226,4227,4228,4229,4230,4231,4232,4233,4234,4235,4236,4237,4238,4239,4240,4241,4242,4243,4244,4245,4246,4247,4248,4249,4250,4251,4252,4253,4254,4255,4256,4257,4258,4259,4260,4261,4262,4263,4264,4265,4266,4267,4268,4269,4270,4271,4272,4273,4274,4275,4276,4277,4278,4279,4280,4281,4282,4283,4284,4285,4286,4287,4288,4289,4290,4291,4292,4293,4294,4295,4296,4297,4298,4299,4300,4301,4302,4303,4304,4305,4306,4307,4308,4309,4310,4311,4312,4313,4314,4315,4316,4317,4318,4319,4320,4321,4322,4323,4324,4325,4326,4327,4328,4329,4330,4331,4332,4333,4334,4335,4336,4337,4338,4339,4340,4341,4342,4343,4344,4345,4346,4347,4348,4349,4350,4351,4352,4353,4354,4355,4356,4357,4358,4359,4360,4361,4362,4363,4364,4365,4366,4367,4368,4369,4370,4371,4372,4373,4374,4375,4376,4377,4378,4379,4380,4381,4382,4383,4384,4385,4386,4387,4388,4389,4390,4391,4392,4393,4394,4395,4396,4397,4398,4399,4400,4401,4402,4403,4404,4405,4406,4407,4408,4409,4410,4411,4412,4413,4414,4415,4416,4417,4418,4419,4420,4421,4422,4423,4424,4425,4426,4427,4428,4429,4430,4431,4432,4433,4434,4435,4436,4437,4438,4439,4440,4441,4442,4443,4444,4445,4446,4447,4448,4449,4450,4451,4452,4453,4454,4455,4456,4457,4458,4459,4460,4461,4462,4463,4464,4465,4466,4467,4468,4469,4470,4471,4472,4473,4474,4475,4476,4477,4478,4479,4480,4481,4482,4483,4484,4485,4486,4487,4488,4489,4490,4491,4492,4493,4494,4495,4496,4497,4498,4499,4500,4501,4502,4503,4504,4505,4506,4507,4508,4509,4510,4511,4512,4513,4514,4515,4516,4517,4518,4519,4520,4521,4522,4523,4524,4525,4526,4527,4528,4529,4530,4531,4532,4533,4534,4535,4536,4537,4538,4539,4540,4541,4542,4543,4544,4545,4546,4547,4548,4549,4550,4551,4552,4553,4554,4555,4556,4557,4558,4559,4560,4561,4562,4563,4564,4565,4566,4567,4568,4569,4570,4571,4572,4573,4574,4575,4576,4577,4578,4579,4580,4581,4582,4583,4584,4585,4586,4587,4588,4589,4590,4591,4592,4593,4594,4595,4596,4597,4598,4599,4600,4601,4602,4603,4604,4605,4606,4607,4608,4609,4610,4611,4612,4613,4614,4615,4616,4617,4618,4619,4620,4621,4622,4623,4624,4625,4626,4627,4628,4629,4630,4631,4632,4633,4634,4635,4636,4637,4638,4639,4640,4641,4642,4643,4644,4645,4646,4647,4648,4649,4650,4651,4652,4653,4654,4655,4656,4657,4658,4659,4660,4661,4662,4663,4664,4665,4666,4667,4668,4669,4670,4671,4672,4673,4674,4675,4676,4677,4678,4679,4680,4681,4682,4683,4684,4685,4686,4687,4688,4689,4690,4691,4692,4693,4694,4695,4696,4697,4698,4699,4700,4701,4702,4703,4704,4705,4706,4707,4708,4709,4710,4711,4712,4713,4714,4715,4716,4717,4718,4719,4720,4721,4722,4723,4724,4725,4726,4727,4728,4729,4730,4731,4732,4733,4734,4735,4736,4737,4738,4739,4740,4741,4742,4743,4744,4745,4746,4747,4748,4749,4750,4751,4752,4753,4754,4755,4756,4757,4758,4759,4760,4761,4762,4763,4764,4765,4766,4767,4768,4769,4770,4771,4772,4773,4774,4775,4776,4777,4778,4779,4780,4781,4782,4783,4784,4785,4786,4787,4788,4789,4790,4791,4792,4793,4794,4795,4796,4797,4798,4799,4800,4801,4802,4803,4804,4805,4806,4807,4808,4809,4810,4811,4812,4813,4814,4815,4816,4817,4818,4819,4820,4821,4822,4823,4824,4825,4826,4827,4828,4829,4830,4831,4832,4833,4834,4835,4836,4837,4838,4839,4840,4841,4842,4843,4844,4845,4846,4847,4848,4849,4850,4851,4852,4853,4854,4855,4856,4857,4858,4859,4860,4861,4862,4863,4864,4865,4866,4867,4868,4869,4870,4871,4872,4873,4874,4875,4876,4877,4878,4879,4880,4881,4882,4883,4884,4885,4886,4887,4888,4889,4890,4891,4892,4893,4894,4895,4896,4897,4898,4899,4900,4901,4902,4903,4904,4905,4906,4907,4908,4909,4910,4911,4912,4913,4914,4915,4916,4917,4918,4919,4920,4921,4922,4923,4924,4925,4926,4927,4928,4929,4930,4931,4932,4933,4934,4935,4936,4937,4938,4939,4940,4941,4942,4943,4944,4945,4946,4947,4948,4949,4950,4951,4952,4953,4954,4955,4956,4957,4958,4959,4960,4961,4962,4963,4964,4965,4966,4967,4968,4969,4970,4971,4972,4973,4974,4975,4976,4977,4978,4979,4980,4981,4982,4983,4984,4985,4986,4987,4988,4989,4990,4991,4992,4993,4994,4995,4996,4997,4998,4999
2531.024,2531.03,2531.032,2531.034,2531.037,2531.039,2531.041,2531.082,2531.085,2531.087,2531.089,2531.093,2531.095,2531.097,2531.137,2531.142,2531.144,2531.146,2531.148,2531.15,2531.152,2531.194,2531.199,2531.201,2531.203,2531.206,2531.208,2531.21,2531.252,2531.254,2531.256,2531.259,2531.261,2531.263,2531.267,2531.308,2531.31,2531.312,2531.314,2531.319,2531.321,2531.323,2531.363,2531.365,2531.367,2531.371,2531.373,2531.375,2531.379,2531.42,2531.422,2531.424,2531.427,2531.429,2531.431,2531.434,2531.473,2531.475,2531.477,2531.482,2531.484,2531.486,2531.49,2531.533,2531.535,2531.537,2531.541,2531.543,2531.545,2531.55,2531.592,2531.594,2531.596,2531.598,2531.6,2531.602,2531.606,2531.647,2531.649,2531.651,2531.654,2531.656,2531.658,2531.662,2531.699,2531.701,2531.703,2531.705,2531.707,2531.709,2531.712,2531.752,2531.754,2531.756,2531.759,2531.761,2531.763,2531.767,2531.81,2531.812,2531.814,2531.817,2531.819,2531.821,2531.824,2531.866,2531.868,2531.87,2531.872,2531.876,2531.878,2531.88,2531.921,2531.923,2531.925,2531.928,2531.93,2531.932,2531.935,2531.975,2531.977,2531.979,2531.982,2531.984,2531.986,2531.992,2532.033,2532.035,2532.037,2532.04,2532.042,2532.044,2532.049,2532.091,2532.093,2532.095,2532.097,2532.101,2532.103,2532.105,2532.147,2532.15,2532.152,2532.154,2532.158,2532.16,2532.162,2532.204,2532.209,2532.211,2532.213,2532.217,2532.219,2532.221,2532.262,2532.267,2532.269,2532.271,2532.274,2532.276,2532.278,2532.317,2532.319,2532.321,2532.323,2532.326,2532.328,2532.33,2532.373,2532.375,2532.377,2532.38,2532.382,2532.384,2532.387,2532.428,2532.432,2532.434,2532.436,2532.438,2532.44,2532.445,2532.487,2532.489,2532.491,2532.495,2532.497,2532.499,2532.503,2532.544,2532.546,2532.548,2532.551,2532.553,2532.555,2532.559,2532.601,2532.603,2532.605,2532.607,2532.61,2532.612,2532.614,2532.658,2532.66,2532.662,2532.666,2532.668,2532.67,2532.674,2532.716,2532.718,2532.72,2532.722,2532.724,2532.726,2532.729,2532.773,2532.775,2532.777,2532.78,2532.782,2532.784,2532.788,2532.831,2532.833,2532.835,2532.838,2532.84,2532.842,2532.847,2532.887,2532.889,2532.891,2532.895,2532.897,2532.899,2532.904,2532.944,2532.95,2532.952,2532.954,2532.957,2532.959,2532.961,2533.002,2533.004,2533.006,2533.011,2533.013,2533.015,2533.019,2533.061,2533.063,2533.065,2533.071,2533.073,2533.075,2533.08,2533.123,2533.125,2533.127,2533.13,2533.132,2533.134,2533.137,2533.176,2533.178,2533.18,2533.182,2533.184,2533.186,2533.189,2533.229,2533.231,2533.233,2533.236,2533.238,2533.24,2533.244,2533.284,2533.286,2533.288,2533.294,2533.296,2533.298,2533.301,2533.34,2533.342,2533.344,2533.347,2533.349,2533.351,2533.354,2533.393,2533.395,2533.397,2533.399,2533.401,2533.403,2533.406,2533.448,2533.45,2533.452,2533.455,2533.457,2533.459,2533.462,2533.504,2533.506,2533.508,2533.512,2533.514,2533.516,2533.519,2533.561,2533.563,2533.565,2533.568,2533.57,2533.572,2533.576,2533.62,2533.622,2533.624,2533.627,2533.629,2533.631,2533.635,2533.673,2533.675,2533.677,2533.68,2533.682,2533.684,2533.688,2533.729,2533.731,2533.735,2533.737,2533.739,2533.744,2533.746,2533.787,2533.793,2533.795,2533.797,2533.8,2533.802,2533.804,2533.845,2533.849,2533.851,2533.853,2533.856,2533.858,2533.86,2533.9,2533.904,2533.906,2533.908,2533.912,2533.914,2533.916,2533.959,2533.964,2533.966,2533.968,2533.971,2533.973,2533.975,2534.019,2534.021,2534.023,2534.025,2534.029,2534.031,2534.033,2534.071,2534.077,2534.079,2534.081,2534.084,2534.086,2534.088,2534.132,2534.137,2534.139,2534.141,2534.144,2534.146,2534.148,2534.19,2534.194,2534.196,2534.198,2534.201,2534.203,2534.205,2534.244,2534.246,2534.248,2534.25,2534.254,2534.256,2534.258,2534.297,2534.302,2534.304,2534.306,2534.309,2534.311,2534.313,2534.352,2534.356,2534.358,2534.36,2534.363,2534.365,2534.367,2534.407,2534.409,2534.411,2534.413,2534.416,2534.418,2534.42,2534.462,2534.464,2534.466,2534.469,2534.471,2534.473,2534.479,2534.518,2534.52,2534.522,2534.525,2534.527,2534.529,2534.533,2534.576,2534.578,2534.58,2534.586,2534.588,2534.59,2534.593,2534.634,2534.636,2534.638,2534.642,2534.644,2534.646,2534.649,2534.692,2534.694,2534.696,2534.7,2534.702,2534.704,2534.71,2534.749,2534.751,2534.754,2534.756,2534.758,2534.762,2534.764,2534.806,2534.811,2534.813,2534.815,2534.82,2534.822,2534.824,2534.866,2534.869,2534.871,2534.873,2534.876,2534.878,2534.88,2534.92,2534.923,2534.925,2534.927,2534.931,2534.933,2534.935,2534.976,2534.981,2534.983,2534.985,2534.987,2534.989,2534.991,2535.029,2535.033,2535.035,2535.037,2535.041,2535.043,2535.045,2535.084,2535.09,2535.092,2535.094,2535.097,2535.099,2535.101,2535.144,2535.146,2535.148,2535.15,2535.155,2535.157,2535.159,2535.197,2535.199,2535.201,2535.205,2535.207,2535.209,2535.212,2535.253,2535.255,2535.257,2535.261,2535.263,2535.265,2535.269,2535.309,2535.311,2535.313,2535.316,2535.318,2535.32,2535.323,2535.364,2535.366,2535.368,2535.372,2535.374,2535.376,2535.379,2535.42,2535.422,2535.424,2535.427,2535.429,2535.431,2535.435,2535.473,2535.475,2535.477,2535.48,2535.482,2535.484,2535.488,2535.529,2535.531,2535.534,2535.536,2535.538,2535.544,2535.546,2535.586,2535.589,2535.591,2535.593,2535.597,2535.599,2535.601,2535.644,2535.648,2535.65,2535.652,2535.655,2535.657,2535.659,2535.701,2535.704,2535.706,2535.708,2535.714,2535.716,2535.718,2535.757,2535.759,2535.761,2535.763,2535.766,2535.768,2535.77,2535.812,2535.814,2535.816,2535.82,2535.822,2535.824,2535.83,2535.866,2535.868,2535.87,2535.875,2535.877,2535.879,2535.882,2535.922,2535.924,2535.926,2535.929,2535.931,2535.933,2535.938,2535.979,2535.981,2535.983,2535.986,2535.988,2535.99,2535.993,2536.033,2536.035,2536.037,2536.041,2536.043,2536.045,2536.049,2536.091,2536.093,2536.095,2536.101,2536.103,2536.105,2536.108,2536.149,2536.151,2536.153,2536.156,2536.158,2536.16,2536.164,2536.204,2536.206,2536.208,2536.212,2536.214,2536.216,2536.22,2536.261,2536.263,2536.265,2536.268,2536.27,2536.272,2536.276,2536.318,2536.32,2536.322,2536.327,2536.329,2536.331,2536.335,2536.376,2536.378,2536.38,2536.385,2536.387,2536.389,2536.392,2536.431,2536.433,2536.435,2536.439,2536.441,2536.443,2536.448,2536.49,2536.492,2536.494,2536.497,2536.499,2536.501,2536.505,2536.545,2536.547,2536.549,2536.552,2536.554,2536.556,2536.56,2536.604,2536.606,2536.608,2536.611,2536.613,2536.615,2536.619,2536.66,2536.662,2536.666,2536.668,2536.67,2536.673,2536.675,2536.719,2536.724,2536.726,2536.728,2536.731,2536.733,2536.735,2536.776,2536.78,2536.782,2536.784,2536.788,2536.79,2536.792,2536.832,2536.836,2536.838,2536.84,2536.844,2536.846,2536.848,2536.891,2536.896,2536.898,2536.9,2536.903,2536.905,2536.907,2536.948,2536.953,2536.955,2536.957,2536.96,2536.962,2536.964,2537.006,2537.011,2537.013,2537.015,2537.017,2537.019,2537.021,2537.062,2537.066,2537.068,2537.07,2537.074,2537.076,2537.078,2537.12,2537.122,2537.124,2537.126,2537.129,2537.131,2537.133,2537.177,2537.181,2537.183,2537.185,2537.19,2537.192,2537.194,2537.236,2537.241,2537.243,2537.245,2537.248,2537.25,2537.252,2537.292,2537.294,2537.296,2537.298,2537.3,2537.302,2537.304,2537.346,2537.348,2537.35,2537.352,2537.355,2537.357,2537.359,2537.402,2537.406,2537.408,2537.41,2537.414,2537.416,2537.418,2537.458,2537.46,2537.462,2537.464,2537.468,2537.47,2537.472,2537.515,2537.517,2537.519,2537.521,2537.524,2537.526,2537.528,2537.568,2537.572,2537.574,2537.576,2537.58,2537.582,2537.584,2537.627,2537.631,2537.633,2537.635,2537.639,2537.641,2537.643,2537.686,2537.689,2537.691,2537.693,2537.696,2537.698,2537.7,2537.74,2537.745,2537.747,2537.749,2537.752,2537.754,2537.756,2537.798,2537.803,2537.805,2537.807,2537.811,2537.813,2537.815,2537.858,2537.864,2537.866,2537.868,2537.871,2537.873,2537.875,2537.916,2537.919,2537.921,2537.923,2537.927,2537.929,2537.931,2537.972,2537.976,2537.978,2537.98,2537.984,2537.986,2537.988,2538.027,2538.033,2538.035,2538.037,2538.04,2538.042,2538.044,2538.085,2538.09,2538.092,2538.094,2538.098,2538.1,2538.102,2538.144,2538.149,2538.151,2538.153,2538.156,2538.158,2538.16,2538.203,2538.209,2538.211,2538.213,2538.217,2538.219,2538.221,2538.264,2538.266,2538.268,2538.27,2538.274,2538.276,2538.278,2538.318,2538.32,2538.322,2538.324,2538.327,2538.329,2538.331,2538.377,2538.379,2538.381,2538.385,2538.387,2538.389,2538.394,2538.434,2538.436,2538.438,2538.442,2538.444,2538.446,2538.45,2538.488,2538.49,2538.492,2538.495,2538.497,2538.499,2538.503,2538.544,2538.546,2538.55,2538.552,2538.554,2538.56,2538.562,2538.602,2538.604,2538.606,2538.608,2538.612,2538.614,2538.616,2538.659,2538.661,2538.663,2538.665,2538.667,2538.669,2538.671,2538.713,2538.719,2538.721,2538.723,2538.727,2538.729,2538.731,2538.773,2538.777,2538.779,2538.781,2538.786,2538.788,2538.79,2538.834,2538.839,2538.841,2538.843,2538.846,2538.848,2538.85,2538.894,2538.896,2538.898,2538.9,2538.903,2538.905,2538.907,2538.948,2538.95,2538.952,2538.954,2538.957,2538.959,2538.961,2539.004,2539.006,2539.008,2539.01,2539.012,2539.014,2539.016,2539.057,2539.062,2539.064,2539.066,2539.071,2539.073,2539.075,2539.116,2539.118,2539.12,2539.122,2539.125,2539.127,2539.129,2539.171,2539.176,2539.178,2539.18,2539.183,2539.185,2539.187,2539.23,2539.235,2539.237,2539.239,2539.243,2539.245,2539.247,2539.288,2539.292,2539.294,2539.296,2539.302,2539.304,2539.306,2539.345,2539.349,2539.351,2539.353,2539.356,2539.358,2539.36,2539.401,2539.405,2539.407,2539.409,2539.413,2539.415,2539.417,2539.458,2539.461,2539.463,2539.465,2539.469,2539.471,2539.473,2539.515,2539.52,2539.522,2539.524,2539.527,2539.529,2539.531,2539.572,2539.574,2539.576,2539.578,2539.581,2539.583,2539.585,2539.626,2539.628,2539.63,2539.632,2539.635,2539.637,2539.639,2539.682,2539.686,2539.688,2539.69,2539.695,2539.697,2539.699,2539.739,2539.741,2539.743,2539.745,2539.748,2539.75,2539.752,2539.792,2539.794,2539.796,2539.798,2539.801,2539.803,2539.805,2539.847,2539.849,2539.851,2539.854,2539.856,2539.858,2539.862,2539.904,2539.906,2539.908,2539.911,2539.913,2539.915,2539.919,2539.959,2539.961,2539.963,2539.966,2539.968,2539.97,2539.973,2540.016,2540.018,2540.02,2540.024,2540.026,2540.028,2540.033,2540.072,2540.074,2540.076,2540.08,2540.082,2540.084,2540.089,2540.132,2540.134,2540.136,2540.139,2540.141,2540.143,2540.147,2540.189,2540.191,2540.193,2540.196,2540.198,2540.2,2540.204,2540.246,2540.248,2540.25,2540.253,2540.255,2540.257,2540.26,2540.302,2540.304,2540.306,2540.309,2540.311,2540.313,2540.316,2540.357,2540.359,2540.361,2540.365,2540.367,2540.369,2540.374,2540.411,2540.413,2540.415,2540.418,2540.42,2540.422,2540.426,2540.465,2540.467,2540.469,2540.472,2540.474,2540.476,2540.481,2540.521,2540.523,2540.525,2540.528,2540.53,2540.532,2540.536,2540.579,2540.581,2540.583,2540.586,2540.588,2540.59,2540.594,2540.638,2540.64,2540.642,2540.646,2540.648,2540.65,2540.654,2540.696,2540.698,2540.7,2540.703,2540.705,2540.707,2540.711,2540.751,2540.753,2540.755,2540.759,2540.761,2540.763,2540.766,2540.807,2540.809,2540.811,2540.815,2540.817,2540.819,2540.823,2540.864,2540.866,2540.868,2540.871,2540.873,2540.875,2540.879,2540.921,2540.923,2540.925,2540.928,2540.93,2540.932,2540.936,2540.978,2540.98,2540.982,2540.986,2540.988,2540.99,2540.993,2541.036,2541.038,2541.04,2541.043,2541.045,2541.047,2541.051,2541.091,2541.093,2541.095,2541.097,2541.099,2541.101,2541.104,2541.143,2541.145,2541.147,2541.15,2541.152,2541.154,2541.156,2541.198,2541.2,2541.202,2541.205,2541.207,2541.209,2541.215,2541.256,2541.258,2541.26,2541.263,2541.265,2541.267,2541.271,2541.314,2541.316,2541.318,2541.321,2541.323,2541.325,2541.329,2541.37,2541.372,2541.374,2541.378,2541.38,2541.382,2541.385,2541.424,2541.426,2541.428,2541.431,2541.433,2541.435,2541.439,2541.48,2541.482,2541.484,2541.486,2541.489,2541.491,2541.494,2541.533,2541.535,2541.537,2541.54,2541.542,2541.544,2541.549,2541.592,2541.594,2541.596,2541.6,2541.602,2541.604,2541.607,2541.649,2541.651,2541.653,2541.656,2541.658,2541.66,2541.664,2541.704,2541.706,2541.708,2541.711,2541.713,2541.715,2541.72,2541.759,2541.761,2541.763,2541.766,2541.768,2541.77,2541.774,2541.817,2541.819,2541.821,2541.825,2541.827,2541.829,2541.831,2541.873,2541.875,2541.877,2541.88,2541.882,2541.884,2541.889,2541.928,2541.93,2541.932,2541.938,2541.94,2541.942,2541.945,2541.986,2541.988,2541.99,2541.994,2541.996,2541.998,2542.001,2542.041,2542.043,2542.045,2542.05,2542.052,2542.054,2542.059,2542.101,2542.103,2542.105,2542.109,2542.111,2542.113,2542.116,2542.159,2542.161,2542.163,2542.166,2542.168,2542.17,2542.176,2542.216,2542.218,2542.22,2542.223,2542.225,2542.227,2542.231,2542.272,2542.274,2542.276,2542.279,2542.281,2542.283,2542.287,2542.327,2542.329,2542.331,2542.335,2542.337,2542.339,2542.342,2542.387,2542.389,2542.391,2542.395,2542.397,2542.399,2542.403,2542.443,2542.445,2542.447,2542.45,2542.452,2542.454,2542.46,2542.5,2542.502,2542.504,2542.51,2542.512,2542.514,2542.517,2542.559,2542.561,2542.563,2542.568,2542.57,2542.572,2542.576,2542.616,2542.618,2542.62,2542.623,2542.625,2542.627,2542.63,2542.674,2542.676,2542.678,2542.681,2542.683,2542.685,2542.689,2542.731,2542.733,2542.735,2542.739,2542.741,2542.743,2542.746,2542.786,2542.788,2542.79,2542.793,2542.795,2542.797,2542.801,2542.844,2542.846,2542.848,2542.854,2542.856,2542.858,2542.862,2542.901,2542.903,2542.905,2542.909,2542.911,2542.913,2542.917,2542.956,2542.958,2542.96,2542.964,2542.966,2542.968,2542.974,2543.011,2543.013,2543.015,2543.02,2543.022,2543.024,2543.027,2543.07,2543.072,2543.074,2543.08,2543.082,2543.084,2543.087,2543.131,2543.133,2543.135,2543.138,2543.14,2543.142,2543.146,2543.189,2543.191,2543.193,2543.199,2543.201,2543.203,2543.206,2543.249,2543.251,2543.253,2543.256,2543.258,2543.26,2543.264,2543.308,2543.31,2543.312,2543.314,2543.317,2543.319,2543.321,2543.362,2543.364,2543.366,2543.37,2543.372,2543.374,2543.38,2543.421,2543.423,2543.425,2543.429,2543.431,2543.433,2543.438,2543.478,2543.48,2543.482,2543.485,2543.487,2543.489,2543.494,2543.536,2543.538,2543.54,2543.543,2543.545,2543.547,2543.551,2543.59,2543.592,2543.594,2543.598,2543.6,2543.602,2543.606,2543.648,2543.65,2543.652,2543.655,2543.657,2543.659,2543.664,2543.704,2543.706,2543.708,2543.714,2543.716,2543.718,2543.722,2543.761,2543.763,2543.765,2543.768,2543.77,2543.772,2543.776,2543.818,2543.82,2543.822,2543.824,2543.826,2543.831,2543.833,2543.874,2543.879,2543.881,2543.883,2543.888,2543.89,2543.892,2543.934,2543.939,2543.941,2543.943,2543.946,2543.948,2543.95,2543.994,2543.996,2543.998,2544.0,2544.003,2544.005,2544.007,2544.046,2544.052,2544.054,2544.056,2544.059,2544.061,2544.063,2544.104,2544.109,2544.111,2544.113,2544.116,2544.118,2544.12,2544.16,2544.162,2544.164,2544.166,2544.169,2544.171,2544.173,2544.212,2544.214,2544.216,2544.218,2544.221,2544.223,2544.225,2544.265,2544.269,2544.271,2544.273,2544.279,2544.281,2544.283,2544.325,2544.329,2544.331,2544.333,2544.339,2544.341,2544.343,2544.384,2544.386,2544.388,2544.39,2544.393,2544.395,2544.397,2544.437,2544.441,2544.443,2544.445,2544.449,2544.451,2544.453,2544.493,2544.495,2544.497,2544.499,2544.503,2544.505,2544.507,2544.549,2544.554,2544.556,2544.558,2544.563,2544.565,2544.567,2544.609,2544.611,2544.613,2544.615,2544.618,2544.62,2544.622,2544.662,2544.667,2544.669,2544.671,2544.674,2544.676,2544.678,2544.718,2544.72,2544.722,2544.724,2544.727,2544.729,2544.731,2544.774,2544.778,2544.78,2544.782,2544.784,2544.787,2544.791,2544.831,2544.833,2544.835,2544.839,2544.841,2544.843,2544.848,2544.885,2544.887,2544.889,2544.893,2544.895,2544.897,2544.901,2544.944,2544.946,2544.948,2544.952,2544.954,2544.956,2544.96,2545.001,2545.003,2545.005,2545.008,2545.01,2545.012,2545.015,2545.058,2545.06,2545.062,2545.065,2545.067,2545.069,2545.073,2545.11,2545.112,2545.114,2545.117,2545.119,2545.121,2545.126,2545.167,2545.169,2545.171,2545.176,2545.178,2545.18,2545.184,2545.226,2545.231,2545.233,2545.235,2545.238,2545.24,2545.242,2545.284,2545.286,2545.288,2545.29,2545.293,2545.295,2545.297,2545.339,2545.344,2545.346,2545.348,2545.351,2545.353,2545.355,2545.397,2545.401,2545.403,2545.405,2545.409,2545.411,2545.413,2545.454,2545.459,2545.461,2545.463,2545.465,2545.467,2545.469,2545.51,2545.515,2545.517,2545.519,2545.525,2545.527,2545.529,2545.57,2545.573,2545.575,2545.577,2545.579,2545.582,2545.584,2545.623,2545.627,2545.629,2545.631,2545.635,2545.637,2545.639,2545.68,2545.685,2545.687,2545.689,2545.693,2545.695,2545.697,2545.738,2545.74,2545.742,2545.744,2545.747,2545.749,2545.751,2545.792,2545.794,2545.796,2545.798,2545.801,2545.803,2545.805,2545.847,2545.851,2545.853,2545.855,2545.859,2545.861,2545.863,2545.904,2545.908,2545.91,2545.912,2545.915,2545.917,2545.919,2545.961,2545.965,2545.967,2545.969,2545.973,2545.975,2545.977,2546.019,2546.021,2546.023,2546.025,2546.03,2546.032,2546.034,2546.076,2546.078,2546.08,2546.082,2546.085,2546.087,2546.089,2546.132,2546.137,2546.139,2546.141,2546.144,2546.146,2546.148,2546.189,2546.192,2546.194,2546.196,2546.2,2546.202,2546.204,2546.246,2546.25,2546.252,2546.254,2546.256,2546.259,2546.261,2546.3,2546.305,2546.307,2546.309,2546.312,2546.314,2546.316,2546.359,2546.362,2546.364,2546.366,2546.37,2546.372,2546.374,2546.417,2546.421,2546.423,2546.425,2546.429,2546.431,2546.433,2546.473,2546.475,2546.477,2546.479,2546.483,2546.485,2546.487,2546.528,2546.533,2546.535,2546.537,2546.542,2546.544,2546.546,2546.587,2546.592,2546.594,2546.596,2546.601,2546.603,2546.605,2546.647,2546.652,2546.654,2546.656,2546.662,2546.664,2546.666,2546.706,2546.711,2546.713,2546.715,2546.721,2546.723,2546.725,2546.764,2546.769,2546.771,2546.773,2546.776,2546.778,2546.78,2546.822,2546.826,2546.828,2546.83,2546.834,2546.836,2546.838,2546.88,2546.882,2546.884,2546.887,2546.889,2546.891,2546.895,2546.938,2546.94,2546.942,2546.946,2546.948,2546.95,2546.954,2546.995,2547.0,2547.002,2547.004,2547.007,2547.009,2547.011,2547.052,2547.056,2547.058,2547.06,2547.066,2547.068,2547.07,2547.11,2547.112,2547.114,2547.116,2547.119,2547.121,2547.123,2547.164,2547.166,2547.168,2547.17,2547.172,2547.174,2547.176,2547.219,2547.223,2547.225,2547.227,2547.233,2547.235,2547.237,2547.279,2547.283,2547.285,2547.287,2547.293,2547.295,2547.297,2547.339,2547.342,2547.344,2547.346,2547.349,2547.351,2547.353,2547.393,2547.398,2547.4,2547.402,2547.405,2547.407,2547.409,2547.452,2547.456,2547.458,2547.46,2547.464,2547.466,2547.468,2547.51,2547.512,2547.514,2547.516,2547.518,2547.52,2547.522,2547.564,2547.568,2547.57,2547.572,2547.575,2547.577,2547.579,2547.619,2547.622,2547.624,2547.626,2547.63,2547.632,2547.634,2547.674,2547.679,2547.681,2547.683,2547.686,2547.688,2547.69,2547.73,2547.735,2547.737,2547.739,2547.743,2547.745,2547.747,2547.789,2547.791,2547.793,2547.795,2547.8,2547.802,2547.804,2547.845,2547.847,2547.849,2547.851,2547.854,2547.856,2547.858,2547.9,2547.904,2547.906,2547.908,2547.911,2547.913,2547.915,2547.955,2547.96,2547.962,2547.964,2547.967,2547.969,2547.971,2548.014,2548.016,2548.018,2548.02,2548.025,2548.027,2548.029,2548.071,2548.076,2548.078,2548.08,2548.085,2548.087,2548.089,2548.132,2548.134,2548.136,2548.138,2548.141,2548.143,2548.145,2548.185,2548.189,2548.191,2548.193,2548.196,2548.198,2548.2,2548.24,2548.242,2548.244,2548.246,2548.251,2548.253,2548.255,2548.294,2548.296,2548.298,2548.3,2548.303,2548.305,2548.307,2548.35,2548.355,2548.357,2548.359,2548.362,2548.364,2548.366,2548.409,2548.413,2548.415,2548.417,2548.421,2548.423,2548.425,2548.466,2548.468,2548.47,2548.472,2548.475,2548.477,2548.479,2548.518,2548.521,2548.523,2548.525,2548.529,2548.531,2548.533,2548.577,2548.58,2548.582,2548.584,2548.587,2548.589,2548.591,2548.63,2548.635,2548.637,2548.639,2548.643,2548.645,2548.647,2548.69,2548.694,2548.696,2548.698,2548.701,2548.703,2548.705,2548.746,2548.751,2548.753,2548.755,2548.761,2548.763,2548.765,2548.805,2548.809,2548.811,2548.813,2548.817,2548.819,2548.821,2548.862,2548.867,2548.869,2548.871,2548.874,2548.876,2548.878,2548.924,2548.926,2548.928,2548.93,2548.933,2548.935,2548.937,2548.977,2548.981,2548.983,2548.985,2548.988,2548.99,2548.992,2549.036,2549.041,2549.043,2549.045,2549.048,2549.05,2549.052,2549.093,2549.098,2549.1,2549.102,2549.105,2549.107,2549.109,2549.148,2549.15,2549.152,2549.154,2549.157,2549.159,2549.161,2549.205,2549.21,2549.212,2549.214,2549.217,2549.219,2549.221,2549.261,2549.266,2549.268,2549.27,2549.273,2549.275,2549.277,2549.32,2549.324,2549.326,2549.328,2549.334,2549.336,2549.338,2549.379,2549.381,2549.384,2549.388,2549.39,2549.392,2549.395,2549.436,2549.438,2549.44,2549.444,2549.446,2549.448,2549.45,2549.49,2549.492,2549.494,2549.497,2549.499,2549.501,2549.505,2549.548,2549.55,2549.552,2549.555,2549.557,2549.559,2549.563,2549.602,2549.604,2549.606,2549.608,2549.61,2549.612,2549.615,2549.658,2549.66,2549.662,2549.666,2549.668,2549.67,2549.676,2549.717,2549.719,2549.721,2549.724,2549.726,2549.728,2549.732,2549.775,2549.777,2549.779,2549.783,2549.785,2549.787,2549.791,2549.835,2549.837,2549.839,2549.842,2549.844,2549.846,2549.85,2549.891,2549.893,2549.895,2549.898,2549.9,2549.902,2549.906,2549.951,2549.953,2549.955,2549.959,2549.961,2549.963,2549.966,2550.008,2550.01,2550.012,2550.016,2550.018,2550.02,2550.023,2550.064,2550.066,2550.068,2550.071,2550.073,2550.075,2550.079,2550.12,2550.122,2550.124,2550.128,2550.13,2550.132,2550.136,2550.178,2550.18,2550.182,2550.188,2550.19,2550.192,2550.195,2550.236,2550.238,2550.24,2550.243,2550.245,2550.247,2550.25,2550.292,2550.294,2550.296,2550.299,2550.301,2550.303,2550.307,2550.348,2550.35,2550.352,2550.356,2550.358,2550.36,2550.363,2550.404,2550.406,2550.408,2550.412,2550.414,2550.416,2550.42,2550.461,2550.463,2550.465,2550.469,2550.471,2550.473,2550.477,2550.519,2550.521,2550.523,2550.526,2550.528,2550.53,2550.534,2550.577,2550.579,2550.581,2550.584,2550.586,2550.588,2550.592,2550.632,2550.634,2550.636,2550.639,2550.641,2550.643,2550.647,2550.69,2550.692,2550.694,2550.698,2550.7,2550.702,2550.706,2550.749,2550.751,2550.753,2550.755,2550.758,2550.76,2550.763,2550.802,2550.804,2550.806,2550.809,2550.811,2550.813,2550.815,2550.855,2550.857,2550.859,2550.863,2550.865,2550.867,2550.872,2550.913,2550.915,2550.917,2550.921,2550.923,2550.925,2550.929,2550.972,2550.974,2550.976,2550.98,2550.982,2550.984,2550.988,2551.03,2551.032,2551.034,2551.038,2551.04,2551.042,2551.045,2551.086,2551.088,2551.09,2551.093,2551.095,2551.097,2551.103,2551.146,2551.148,2551.15,2551.154,2551.156,2551.158,2551.162,2551.203,2551.205,2551.207,2551.21,2551.212,2551.214,2551.219,2551.261,2551.263,2551.265,2551.268,2551.27,2551.272,2551.276,2551.319,2551.321,2551.323,2551.325,2551.328,2551.33,2551.332,2551.373,2551.375,2551.377,2551.38,2551.382,2551.384,2551.388,2551.43,2551.432,2551.434,2551.437,2551.439,2551.441,2551.446,2551.488,2551.49,2551.494,2551.496,2551.498,2551.502,2551.504,2551.546,2551.549,2551.551,2551.553,2551.556,2551.558,2551.56,2551.6,2551.605,2551.607,2551.609,2551.612,2551.614,2551.616,2551.657,2551.659,2551.661,2551.663,2551.666,2551.668,2551.67,2551.712,2551.714,2551.716,2551.718,2551.722,2551.724,2551.726,2551.765,2551.769,2551.771,2551.773,2551.775,2551.778,2551.78,2551.821,2551.826,2551.828,2551.83,2551.836,2551.838,2551.84,2551.88,2551.882,2551.884,2551.886,2551.889,2551.891,2551.893,2551.931,2551.933,2551.935,2551.937,2551.941,2551.943,2551.945,2551.987,2551.989,2551.991,2551.993,2551.996,2551.998,2552.0,2552.039,2552.044,2552.046,2552.048,2552.051,2552.053,2552.055,2552.095,2552.099,2552.101,2552.103,2552.107,2552.109,2552.111,2552.153,2552.157,2552.159,2552.161,2552.165,2552.167,2552.169,2552.211,2552.213,2552.215,2552.217,2552.22,2552.222,2552.224,2552.268,2552.271,2552.273,2552.275,2552.279,2552.281,2552.283,2552.323,2552.328,2552.33,2552.332,2552.335,2552.337,2552.339,2552.381,2552.386,2552.388,2552.39,2552.395,2552.397,2552.399,2552.44,2552.444,2552.446,2552.448,2552.454,2552.456,2552.458,2552.497,2552.499,2552.501,2552.503,2552.506,2552.508,2552.51,2552.554,2552.556,2552.558,2552.56,2552.563,2552.565,2552.567,2552.609,2552.611,2552.613,2552.615,2552.617,2552.619,2552.621,2552.662,2552.664,2552.666,2552.668,2552.671,2552.673,2552.675,2552.717,2552.722,2552.724,2552.726,2552.729,2552.731,2552.733,2552.778,2552.783,2552.785,2552.787,2552.79,2552.792,2552.794,2552.834,2552.839,2552.841,2552.843,2552.846,2552.848,2552.85,2552.892,2552.895,2552.897,2552.899,2552.903,2552.905,2552.907,2552.95,2552.954,2552.956,2552.958,2552.96,2552.963,2552.965,2553.006,2553.008,2553.01,2553.012,2553.015,2553.017,2553.019,2553.062,2553.067,2553.069,2553.071,2553.075,2553.077,2553.079,2553.122,2553.125,2553.127,2553.129,2553.133,2553.135,2553.137,2553.177,2553.182,2553.184,2553.186,2553.189,2553.191,2553.193,2553.234,2553.236,2553.238,2553.24,2553.245,2553.247,2553.249,2553.289,2553.294,2553.296,2553.298,2553.301,2553.303,2553.305,2553.347,2553.352,2553.354,2553.356,2553.359,2553.361,2553.363,2553.403,2553.408,2553.41,2553.412,2553.415,2553.417,2553.419,2553.461,2553.463,2553.465,2553.467,2553.47,2553.472,2553.474,2553.515,2553.519,2553.521,2553.523,2553.527,2553.529,2553.531,2553.572,2553.575,2553.577,2553.579,2553.582,2553.584,2553.586,2553.627,2553.632,2553.634,2553.636,2553.639,2553.641,2553.643,2553.686,2553.69,2553.692,2553.694,2553.697,2553.699,2553.701,2553.742,2553.747,2553.749,2553.751,2553.754,2553.756,2553.758,2553.799,2553.803,2553.805,2553.807,2553.811,2553.813,2553.815,2553.857,2553.862,2553.864,2553.866,2553.87,2553.872,2553.874,2553.919,2553.924,2553.926,2553.928,2553.931,2553.933,2553.935,2553.977,2553.98,2553.982,2553.984,2553.988,2553.99,2553.992,2554.035,2554.037,2554.039,2554.041,2554.043,2554.045,2554.047,2554.089,2554.094,2554.096,2554.098,2554.102,2554.104,2554.106,2554.149,2554.153,2554.155,2554.157,2554.16,2554.162,2554.164,2554.205,2554.207,2554.209,2554.211,2554.214,2554.216,2554.218,2554.259,2554.264,2554.266,2554.268,2554.271,2554.273,2554.275,2554.315,2554.319,2554.321,2554.323,2554.327,2554.329,2554.331,2554.371,2554.373,2554.375,2554.377,2554.38,2554.382,2554.384,2554.427,2554.432,2554.434,2554.436,2554.44,2554.442,2554.444,2554.484,2554.486,2554.488,2554.49,2554.492,2554.494,2554.496,2554.536,2554.538,2554.54,2554.542,2554.546,2554.548,2554.55,2554.592,2554.597,2554.599,2554.601,2554.604,2554.606,2554.608,2554.648,2554.651,2554.653,2554.655,2554.659,2554.661,2554.663,2554.705,2554.71,2554.712,2554.714,2554.717,2554.719,2554.721,2554.761,2554.763,2554.765,2554.767,2554.77,2554.772,2554.774,2554.818,2554.82,2554.822,2554.824,2554.827,2554.829,2554.831,2554.875,2554.879,2554.881,2554.883,2554.886,2554.888,2554.89,2554.929,2554.933,2554.935,2554.937,2554.942,2554.944,2554.946,2554.989,2554.994,2554.996,2554.998,2555.002,2555.004,2555.006,2555.046,2555.048,2555.05,2555.052,2555.055,2555.057,2555.059,2555.1,2555.104,2555.106,2555.108,2555.111,2555.113,2555.115,2555.154,2555.158,2555.16,2555.162,2555.168,2555.17,2555.172,2555.212,2555.217,2555.219,2555.221,2555.225,2555.227,2555.229,2555.269,2555.274,2555.276,2555.278,2555.281,2555.283,2555.285,2555.327,2555.332,2555.334,2555.336,2555.339,2555.341,2555.343,2555.384,2555.388,2555.39,2555.392,2555.396,2555.398,2555.4,2555.439,2555.441,2555.443,2555.445,2555.448,2555.45,2555.452,2555.492,2555.497,2555.499,2555.501,2555.504,2555.506,2555.508,2555.552,2555.557,2555.559,2555.561,2555.565,2555.567,2555.569,2555.609,2555.614,2555.616,2555.618,2555.62,2555.622,2555.624,2555.664,2555.666,2555.668,2555.67,2555.673,2555.675,2555.677,2555.719,2555.721,2555.723,2555.725,2555.728,2555.73,2555.732,2555.777,2555.782,2555.784,2555.786,2555.789,2555.791,2555.793,2555.833,2555.838,2555.84,2555.842,2555.845,2555.847,2555.849,2555.892,2555.896,2555.898,2555.9,2555.904,2555.906,2555.908,2555.95,2555.954,2555.956,2555.958,2555.962,2555.964,2555.966,2556.011,2556.013,2556.015,2556.017,2556.019,2556.021,2556.023,2556.063,2556.069,2556.071,2556.073,2556.076,2556.078,2556.08,2556.122,2556.127,2556.129,2556.131,2556.134,2556.136,2556.138,2556.178,2556.182,2556.184,2556.186,2556.191,2556.193,2556.195,2556.235,2556.24,2556.242,2556.244,2556.247,2556.249,2556.251,2556.294,2556.298,2556.3,2556.302,2556.305,2556.307,2556.309,2556.349,2556.353,2556.355,2556.357,2556.361,2556.363,2556.365,2556.407,2556.412,2556.414,2556.416,2556.42,2556.422,2556.424,2556.464,2556.467,2556.469,2556.471,2556.474,2556.476,2556.478,2556.521,2556.524,2556.526,2556.529,2556.531,2556.533,2556.536,2556.58,2556.582,2556.584,2556.587,2556.589,2556.591,2556.594,2556.638,2556.64,2556.642,2556.646,2556.648,2556.65,2556.654,2556.695,2556.697,2556.699,2556.702,2556.704,2556.706,2556.71,2556.751,2556.753,2556.755,2556.758,2556.76,2556.762,2556.766,2556.809,2556.811,2556.813,2556.817,2556.819,2556.821,2556.825,2556.869,2556.871,2556.873,2556.877,2556.879,2556.881,2556.885,2556.928,2556.93,2556.932,2556.936,2556.938,2556.94,2556.944,2556.983,2556.985,2556.987,2556.99,2556.992,2556.994,2556.997,2557.037,2557.039,2557.041,2557.044,2557.046,2557.048,2557.052,2557.093,2557.095,2557.097,2557.1,2557.102,2557.104,2557.107,2557.15,2557.152,2557.154,2557.157,2557.159,2557.161,2557.164,2557.206,2557.208,2557.21,2557.213,2557.215,2557.217,2557.219,2557.262,2557.264,2557.266,2557.27,2557.272,2557.274,2557.28,2557.318,2557.32,2557.322,2557.324,2557.326,2557.328,2557.332,2557.376,2557.378,2557.38,2557.384,2557.386,2557.388,2557.391,2557.43,2557.432,2557.434,2557.437,2557.439,2557.441,2557.446,2557.49,2557.492,2557.494,2557.497,2557.499,2557.501,2557.505,2557.547,2557.549,2557.551,2557.554,2557.556,2557.558,2557.562,2557.605,2557.607,2557.609,2557.613,2557.615,2557.617,2557.621,2557.664,2557.666,2557.668,2557.672,2557.674,2557.676,2557.68,2557.718,2557.72,2557.722,2557.725,2557.727,2557.729,2557.733,2557.777,2557.779,2557.781,2557.784,2557.786,2557.788,2557.791,2557.834,2557.836,2557.838,2557.841,2557.843,2557.845,2557.849,2557.888,2557.89,2557.892,2557.895,2557.897,2557.899,2557.903,2557.944,2557.946,2557.948,2557.951,2557.953,2557.955,2557.959,2558.0,2558.002,2558.004,2558.007,2558.009,2558.011,2558.017,2558.058,2558.06,2558.062,2558.065,2558.067,2558.069,2558.074,2558.116,2558.118,2558.12,2558.123,2558.125,2558.127,2558.131,2558.172,2558.174,2558.176,2558.18,2558.182,2558.184,2558.187,2558.228,2558.23,2558.232,2558.236,2558.238,2558.24,2558.244,2558.285,2558.287,2558.289,2558.292,2558.294,2558.296,2558.302,2558.343,2558.345,2558.347,2558.35,2558.352,2558.354,2558.358,2558.4,2558.402,2558.404,2558.407,2558.409,2558.411,2558.415,2558.454,2558.456,2558.458,2558.461,2558.463,2558.465,2558.468,2558.512,2558.514,2558.516,2558.519,2558.521,2558.523,2558.527,2558.567,2558.569,2558.571,2558.574,2558.576,2558.578,2558.582,2558.626,2558.628,2558.63,2558.633,2558.635,2558.637,2558.641,2558.686,2558.688,2558.69,2558.693,2558.695,2558.697,2558.701,2558.744,2558.746,2558.748,2558.752,2558.754,2558.756,2558.759,2558.801,2558.803,2558.805,2558.81,2558.812,2558.814,2558.817,2558.859,2558.861,2558.863,2558.867,2558.869,2558.871,2558.874,2558.915,2558.917,2558.919,2558.923,2558.925,2558.927,2558.932,2558.97,2558.972,2558.974,2558.976,2558.978,2558.98,2558.984,2559.027,2559.029,2559.031,2559.034,2559.036,2559.038,2559.041,2559.082,2559.084,2559.086,2559.089,2559.091,2559.093,2559.097,2559.14,2559.142,2559.144,2559.147,2559.149,2559.151,2559.157,2559.197,2559.199,2559.201,2559.205,2559.207,2559.209,2559.212,2559.256,2559.258,2559.26,2559.263,2559.265,2559.267,2559.271,2559.317,2559.319,2559.321,2559.324,2559.326,2559.328,2559.332,2559.375,2559.377,2559.379,2559.382,2559.384,2559.386,2559.39,2559.433,2559.435,2559.437,2559.443,2559.445,2559.447,2559.45,2559.495,2559.497,2559.499,2559.502,2559.504,2559.506,2559.51,2559.552,2559.554,2559.558,2559.56,2559.562,2559.566,2559.568,2559.613,2559.615,2559.617,2559.619,2559.622,2559.624,2559.626,2559.669,2559.671,2559.673,2559.675,2559.678,2559.68,2559.682,2559.725,2559.729,2559.731,2559.733,2559.737,2559.739,2559.741,2559.783,2559.785,2559.787,2559.789,2559.792,2559.794,2559.796,2559.836,2559.84,2559.842,2559.844,2559.849,2559.851,2559.853,2559.894,2559.898,2559.9,2559.902,2559.907,2559.909,2559.911,2559.954,2559.959,2559.961,2559.963,2559.967,2559.969,2559.971,2560.014,2560.017,2560.019,2560.021,2560.025,2560.027,2560.029,2560.069,2560.072,2560.074,2560.076,2560.079,2560.081,2560.083,2560.124,2560.13,2560.132,2560.134,2560.137,2560.139,2560.141,2560.183,2560.188,2560.19,2560.192,2560.195,2560.197,2560.199,2560.242,2560.246,2560.248,2560.25,2560.253,2560.255,2560.257,2560.301,2560.307,2560.309,2560.311,2560.315,2560.317,2560.319,2560.359,2560.365,2560.367,2560.369,2560.372,2560.374,2560.376,2560.42,2560.424,2560.426,2560.428,2560.432,2560.434,2560.436,2560.477,2560.482,2560.484,2560.486,2560.489,2560.491,2560.493,2560.532,2560.535,2560.537,2560.539,2560.542,2560.544,2560.546,2560.587,2560.592,2560.594,2560.596,2560.599,2560.601,2560.603,2560.644,2560.649,2560.651,2560.653,2560.657,2560.659,2560.661,2560.704,2560.709,2560.711,2560.713,2560.717,2560.719,2560.721,2560.762,2560.767,2560.769,2560.771,2560.774,2560.776,2560.778,2560.821,2560.826,2560.828,2560.83,2560.833,2560.835,2560.837,2560.877,2560.88,2560.882,2560.884,2560.887,2560.889,2560.891,2560.931,2560.936,2560.938,2560.94,2560.943,2560.945,2560.947,2560.989,2560.991,2560.993,2560.995,2560.998,2561.0,2561.002,2561.044,2561.049,2561.051,2561.053,2561.056,2561.058,2561.06,2561.099,2561.104,2561.106,2561.108,2561.111,2561.113,2561.115,2561.158,2561.163,2561.165,2561.167,2561.171,2561.173,2561.175,2561.215,2561.217,2561.219,2561.221,2561.225,2561.227,2561.229,2561.27,2561.275,2561.277,2561.279,2561.282,2561.284,2561.286,2561.328,2561.33,2561.332,2561.334,2561.337,2561.339,2561.341,2561.383,2561.388,2561.39,2561.392,2561.395,2561.397,2561.399,2561.44,2561.444,2561.446,2561.448,2561.45,2561.453,2561.455,2561.495,2561.499,2561.501,2561.503,2561.507,2561.509,2561.511,2561.553,2561.555,2561.557,2561.559,2561.562,2561.564,2561.566,2561.606,2561.609,2561.611,2561.617,2561.619,2561.621,2561.624,2561.664,2561.666,2561.668,2561.672,2561.674,2561.676,2561.68,2561.72,2561.722,2561.724,2561.727,2561.729,2561.731,2561.735,2561.776,2561.778,2561.78,2561.784,2561.786,2561.788,2561.792,2561.834,2561.836,2561.838,2561.842,2561.844,2561.846,2561.85,2561.894,2561.896,2561.898,2561.9,2561.903,2561.905,2561.907,2561.951,2561.953,2561.955,2561.958,2561.96,2561.962,2561.966,2562.005,2562.007,2562.009,2562.012,2562.014,2562.016,2562.02,2562.063,2562.065,2562.067,2562.07,2562.072,2562.074,2562.079,2562.117,2562.119,2562.121,2562.124,2562.126,2562.128,2562.131,2562.175,2562.177,2562.179,2562.182,2562.184,2562.186,2562.19,2562.23,2562.232,2562.234,2562.237,2562.239,2562.241,2562.245,2562.287,2562.289,2562.291,2562.294,2562.296,2562.298,2562.302,2562.344,2562.346,2562.348,2562.35,2562.352,2562.354,2562.357,2562.4,2562.402,2562.404,2562.407,2562.409,2562.411,2562.413,2562.454,2562.456,2562.458,2562.461,2562.463,2562.465,2562.471,2562.51,2562.512,2562.514,2562.517,2562.519,2562.521,2562.525,2562.567,2562.569,2562.571,2562.574,2562.576,2562.578,2562.581,2562.62,2562.622,2562.624,2562.627,2562.629,2562.631,2562.635,2562.678,2562.68,2562.682,2562.685,2562.687,2562.689,2562.694,2562.735,2562.737,2562.739,2562.742,2562.744,2562.746,2562.75,2562.791,2562.793,2562.795,2562.799,2562.801,2562.803,2562.807,2562.847,2562.849,2562.851,2562.854,2562.856,2562.858,2562.86,2562.904,2562.906,2562.908,2562.91,2562.914,2562.916,2562.918,2562.959,2562.964,2562.966,2562.968,2562.971,2562.973,2562.975,2563.015,2563.017,2563.019,2563.021,2563.024,2563.026,2563.028,2563.067,2563.073,2563.075,2563.077,2563.08,2563.082,2563.084,2563.125,2563.13,2563.132,2563.134,2563.137,2563.139,2563.141,2563.183,2563.188,2563.19,2563.192,2563.195,2563.197,2563.199,2563.242,2563.246,2563.248,2563.25,2563.253,2563.255,2563.257,2563.298,2563.3,2563.302,2563.304,2563.307,2563.309,2563.311,2563.351,2563.355,2563.358,2563.36,2563.363,2563.365,2563.367,2563.406,2563.411,2563.413,2563.415,2563.418,2563.42,2563.422,2563.465,2563.469,2563.471,2563.473,2563.475,2563.478,2563.482,2563.524,2563.526,2563.528,2563.531,2563.533,2563.535,2563.538,2563.578,2563.58,2563.582,2563.585,2563.587,2563.589,2563.594,2563.635,2563.637,2563.639,2563.642,2563.644,2563.646,2563.65,2563.692,2563.694,2563.696,2563.702,2563.704,2563.706,2563.709,2563.748,2563.75,2563.752,2563.755,2563.757,2563.759,2563.764,2563.806,2563.808,2563.81,2563.813,2563.815,2563.817,2563.82,2563.859,2563.861,2563.863,2563.865,2563.867,2563.869,2563.872,2563.914,2563.916,2563.918,2563.921,2563.923,2563.925,2563.929,2563.969,2563.971,2563.973,2563.976,2563.978,2563.98,2563.984,2564.026,2564.028,2564.03,2564.033,2564.035,2564.037,2564.041,2564.08,2564.082,2564.084,2564.087,2564.089,2564.091,2564.095,2564.136,2564.138,2564.14,2564.144,2564.146,2564.148,2564.15,2564.193,2564.195,2564.197,2564.199,2564.204,2564.206,2564.208,2564.25,2564.255,2564.257,2564.259,2564.263,2564.265,2564.267,2564.306,2564.312,2564.314,2564.316,2564.319,2564.321,2564.323,2564.367,2564.371,2564.373,2564.375,2564.379,2564.381,2564.383,2564.426,2564.431,2564.433,2564.435,2564.439,2564.441,2564.443,2564.482,2564.484,2564.486,2564.488,2564.491,2564.493,2564.495,2564.538,2564.541,2564.543,2564.545,2564.549,2564.551,2564.553,2564.593,2564.595,2564.597,2564.599,2564.601,2564.603,2564.606,2564.649,2564.651,2564.653,2564.656,2564.658,2564.66,2564.664,2564.708,2564.71,2564.712,2564.716,2564.718,2564.72,2564.723,2564.764,2564.766,2564.768,2564.771,2564.773,2564.775,2564.779,2564.82,2564.822,2564.824,2564.83,2564.832,2564.834,2564.837,2564.88,2564.882,2564.884,2564.888,2564.89,2564.892,2564.896,2564.937,2564.939,2564.941,2564.944,2564.946,2564.948,2564.951,2564.993,2564.995,2564.997,2565.0,2565.002,2565.004,2565.007,2565.047,2565.049,2565.051,2565.055,2565.057,2565.059,2565.063,2565.107,2565.109,2565.111,2565.114,2565.116,2565.118,2565.122,2565.163,2565.165,2565.167,2565.17,2565.172,2565.174,2565.177,2565.221,2565.223,2565.225,2565.229,2565.231,2565.233,2565.237,2565.275,2565.277,2565.28,2565.283,2565.285,2565.287,2565.291,2565.334,2565.336,2565.338,2565.341,2565.343,2565.345,2565.351,2565.39,2565.392,2565.394,2565.396,2565.398,2565.4,2565.403,2565.446,2565.448,2565.45,2565.453,2565.455,2565.457,2565.46,2565.502,2565.504,2565.506,2565.509,2565.511,2565.513,2565.519,2565.559,2565.561,2565.563,2565.566,2565.568,2565.57,2565.574,2565.616,2565.618,2565.62,2565.623,2565.625,2565.627,2565.631,2565.674,2565.676,2565.678,2565.68,2565.683,2565.685,2565.688,2565.726,2565.728,2565.73,2565.733,2565.735,2565.737,2565.74,2565.782,2565.784,2565.786,2565.789,2565.791,2565.793,2565.797,2565.834,2565.836,2565.838,2565.841,2565.843,2565.845,2565.849,2565.889,2565.891,2565.893,2565.896,2565.898,2565.9,2565.904,2565.942,2565.944,2565.946,2565.951,2565.953,2565.955,2565.958,2565.999,2566.001,2566.003,2566.007,2566.009,2566.011,2566.014,2566.058,2566.06,2566.062,2566.066,2566.068,2566.07,2566.074,2566.116,2566.118,2566.12,2566.123,2566.125,2566.127,2566.133,2566.173,2566.175,2566.177,2566.181,2566.183,2566.185,2566.189,2566.229,2566.231,2566.233,2566.235,2566.238,2566.24,2566.243,2566.283,2566.285,2566.287,2566.29,2566.292,2566.294,2566.296,2566.339,2566.345,2566.347,2566.349,2566.352,2566.354,2566.356,2566.399,2566.404,2566.406,2566.408,2566.411,2566.413,2566.415,2566.454,2566.458,2566.46,2566.462,2566.465,2566.467,2566.469,2566.51,2566.512,2566.514,2566.516,2566.519,2566.521,2566.523,2566.564,2566.566,2566.568,2566.57,2566.573,2566.575,2566.577,2566.614,2566.616,2566.618,2566.62,2566.623,2566.625,2566.627,2566.669,2566.674,2566.676,2566.678,2566.681,2566.683,2566.685,2566.726,2566.729,2566.731,2566.733,2566.737,2566.739,2566.741,2566.784,2566.786,2566.788,2566.79,2566.792,2566.794,2566.796,2566.837,2566.841,2566.843,2566.845,2566.851,2566.853,2566.855,2566.894,2566.899,2566.901,2566.903,2566.906,2566.908,2566.91,2566.951,2566.955,2566.957,2566.959,2566.962,2566.964,2566.966,2567.003,2567.005,2567.007,2567.009,2567.012,2567.014,2567.016,2567.058,2567.063,2567.065,2567.067,2567.071,2567.073,2567.075,2567.118,2567.12,2567.122,2567.124,2567.128,2567.13,2567.132,2567.173,2567.175,2567.177,2567.179,2567.182,2567.184,2567.186,2567.226,2567.228,2567.23,2567.233,2567.235,2567.237,2567.239,2567.28,2567.282,2567.284,2567.286,2567.289,2567.291,2567.293,2567.337,2567.339,2567.341,2567.347,2567.349,2567.351,2567.354,2567.397,2567.399,2567.401,2567.404,2567.406,2567.408,2567.412,2567.451,2567.453,2567.455,2567.458,2567.46,2567.462,2567.464,2567.507,2567.509,2567.511,2567.515,2567.517,2567.519,2567.525,2567.564,2567.566,2567.568,2567.57,2567.575,2567.577,2567.579,2567.618,2567.623,2567.625,2567.627,2567.632,2567.634,2567.636,2567.677,2567.679,2567.681,2567.683,2567.686,2567.688,2567.69,2567.734,2567.736,2567.738,2567.74,2567.743,2567.745,2567.747,2567.787,2567.791,2567.793,2567.795,2567.798,2567.8,2567.802,2567.843,2567.848,2567.85,2567.852,2567.858,2567.86,2567.862,2567.902,2567.906,2567.908,2567.91,2567.914,2567.916,2567.918,2567.96,2567.964,2567.966,2567.968,2567.972,2567.974,2567.976,2568.015,2568.02,2568.022,2568.024,2568.027,2568.029,2568.031,2568.068,2568.07,2568.072,2568.074,2568.077,2568.079,2568.081,2568.123,2568.126,2568.128,2568.13,2568.133,2568.135,2568.137,2568.179,2568.184,2568.186,2568.188,2568.191,2568.193,2568.195,2568.233,2568.235,2568.237,2568.239,2568.242,2568.244,2568.246,2568.289,2568.294,2568.296,2568.298,2568.301,2568.303,2568.305,2568.344,2568.348,2568.35,2568.352,2568.355,2568.357,2568.359,2568.4,2568.402,2568.404,2568.407,2568.409,2568.411,2568.414,2568.454,2568.456,2568.458,2568.461,2568.463,2568.465,2568.471,2568.512,2568.514,2568.516,2568.519,2568.521,2568.523,2568.527,2568.569,2568.571,2568.573,2568.576,2568.578,2568.58,2568.584,2568.628,2568.63,2568.632,2568.635,2568.637,2568.639,2568.642,2568.682,2568.684,2568.686,2568.69,2568.692,2568.694,2568.697,2568.736,2568.738,2568.74,2568.742,2568.744,2568.746,2568.75,2568.793,2568.795,2568.797,2568.8,2568.802,2568.804,2568.808,2568.849,2568.851,2568.853,2568.855,2568.858,2568.86,2568.862,2568.904,2568.909,2568.911,2568.913,2568.917,2568.919,2568.921,2568.963,2568.967,2568.969,2568.971,2568.975,2568.977,2568.979,2569.02,2569.024,2569.026,2569.028,2569.031,2569.033,2569.035,2569.075,2569.079,2569.081,2569.083,2569.087,2569.089,2569.091,2569.132,2569.134,2569.136,2569.138,2569.141,2569.143,2569.145,2569.185,2569.19,2569.192,2569.194,2569.197,2569.199,2569.201,2569.241,2569.244,2569.246,2569.248,2569.253,2569.255,2569.257,2569.301,2569.305,2569.307,2569.309,2569.312,2569.314,2569.316,2569.357,2569.362,2569.364,2569.366,2569.37,2569.372,2569.374,2569.414,2569.419,2569.421,2569.423,2569.426,2569.428,2569.43,2569.47,2569.474,2569.476,2569.478,2569.481,2569.483,2569.485,2569.525,2569.529,2569.531,2569.533,2569.537,2569.539,2569.541,2569.585,2569.589,2569.591,2569.593,2569.599,2569.601,2569.603,2569.645,2569.647,2569.649,2569.651,2569.655,2569.657,2569.659,2569.699,2569.703,2569.705,2569.707,2569.711,2569.713,2569.715,2569.758,2569.762,2569.764,2569.766,2569.77,2569.772,2569.774,2569.814,2569.816,2569.818,2569.82,2569.822,2569.824,2569.826,2569.867,2569.872,2569.874,2569.876,2569.88,2569.882,2569.884,2569.924,2569.926,2569.928,2569.93,2569.933,2569.935,2569.937,2569.974,2569.979,2569.981,2569.983,2569.987,2569.989,2569.991,2570.032,2570.035,2570.037,2570.039,2570.044,2570.046,2570.048,2570.088,2570.093,2570.095,2570.097,2570.101,2570.103,2570.105,2570.147,2570.151,2570.153,2570.155,2570.159,2570.161,2570.163,2570.203,2570.208,2570.21,2570.212,2570.215,2570.217,2570.219,2570.26,2570.265,2570.267,2570.269,2570.272,2570.274,2570.276,2570.317,2570.319,2570.321,2570.323,2570.326,2570.328,2570.33,2570.372,2570.377,2570.379,2570.381,2570.384,2570.386,2570.388,2570.429,2570.435,2570.437,2570.439,2570.442,2570.444,2570.446,2570.487,2570.489,2570.491,2570.493,2570.496,2570.498,2570.5,2570.542,2570.546,2570.548,2570.55,2570.554,2570.556,2570.558,2570.597,2570.602,2570.604,2570.606,2570.61,2570.612,2570.614,2570.654,2570.659,2570.661,2570.663,2570.666,2570.668,2570.67,2570.71,2570.715,2570.717,2570.719,2570.725,2570.727,2570.729,2570.769,2570.774,2570.776,2570.778,2570.782,2570.784,2570.786,2570.828,2570.83,2570.832,2570.834,2570.837,2570.839,2570.841,2570.882,2570.885,2570.887,2570.889,2570.893,2570.895,2570.897,2570.938,2570.943,2570.945,2570.947,2570.951,2570.953,2570.955,2570.995,2570.999,2571.001,2571.003,2571.007,2571.009,2571.011,2571.052,2571.054,2571.056,2571.058,2571.061,2571.063,2571.065,2571.108,2571.111,2571.113,2571.115,2571.119,2571.121,2571.123,2571.162,2571.164,2571.166,2571.168,2571.17,2571.172,2571.176,2571.216,2571.218,2571.22,2571.224,2571.226,2571.228,2571.232,2571.272,2571.274,2571.276,2571.279,2571.281,2571.283,2571.287,2571.329,2571.331,2571.333,2571.337,2571.339,2571.341,2571.345,2571.387,2571.389,2571.395,2571.397,2571.399,2571.402,2571.404,2571.444,2571.449
2571.451,2571.453,2571.459,2571.461,2571.463,2571.505,2571.51,2571.512,2571.514,2571.519,2571.521,2571.523,2571.565,2571.567,2571.569,2571.571,2571.574,2571.576,2571.578,2571.618,2571.621,2571.623,2571.625,2571.629,2571.631,2571.633,2571.678,2571.681,2571.683,2571.685,2571.689,2571.691,2571.693,2571.735,2571.74,2571.742,2571.744,2571.748,2571.75,2571.752,2571.794,2571.796,2571.798,2571.8,2571.802,2571.804,2571.806,2571.848,2571.853,2571.855,2571.857,2571.859,2571.861,2571.863,2571.902,2571.905,2571.907,2571.909,2571.912,2571.914,2571.916,2571.956,2571.96,2571.962,2571.964,2571.967,2571.969,2571.971,2572.014,2572.018,2572.02,2572.022,2572.024,2572.027,2572.029,2572.069,2572.071,2572.073,2572.075,2572.078,2572.08,2572.082,2572.125,2572.13,2572.132,2572.134,2572.137,2572.139,2572.141,2572.181,2572.183,2572.185,2572.187,2572.189,2572.191,2572.193,2572.233,2572.236,2572.238,2572.24,2572.244,2572.246,2572.248,2572.291,2572.293,2572.295,2572.297,2572.299,2572.301,2572.303,2572.345,2572.349,2572.351,2572.353,2572.359,2572.361,2572.363,2572.405,2572.407,2572.409,2572.411,2572.414,2572.416,2572.418,2572.46,2572.462,2572.464,2572.466,2572.469,2572.471,2572.473,2572.515,2572.517,2572.519,2572.521,2572.524,2572.526,2572.528,2572.57,2572.574,2572.576,2572.578,2572.582,2572.584,2572.586,2572.627,2572.632,2572.634,2572.636,2572.639,2572.641,2572.643,2572.682,2572.687,2572.689,2572.691,2572.694,2572.696,2572.698,2572.738,2572.742,2572.744,2572.746,2572.749,2572.751,2572.753,2572.795,2572.797,2572.799,2572.801,2572.804,2572.806,2572.808,2572.849,2572.851,2572.853,2572.857,2572.859,2572.861,2572.864,2572.905,2572.907,2572.909,2572.912,2572.914,2572.916,2572.921,2572.965,2572.967,2572.969,2572.972,2572.974,2572.976,2572.98,2573.023,2573.025,2573.027,2573.03,2573.032,2573.034,2573.037,2573.078,2573.08,2573.082,2573.086,2573.088,2573.09,2573.093,2573.136,2573.138,2573.14,2573.143,2573.145,2573.147,2573.153,2573.189,2573.191,2573.193,2573.198,2573.2,2573.202,2573.205,2573.244,2573.246,2573.248,2573.251,2573.253,2573.255,2573.258,2573.3,2573.302,2573.304,2573.307,2573.309,2573.311,2573.317,2573.355,2573.357,2573.359,2573.362,2573.364,2573.366,2573.37,2573.415,2573.417,2573.419,2573.422,2573.424,2573.426,2573.43,2573.471,2573.473,2573.475,2573.48,2573.482,2573.484,2573.488,2573.529,2573.531,2573.533,2573.537,2573.539,2573.541,2573.544,2573.586,2573.588,2573.59,2573.594,2573.596,2573.598,2573.602,2573.646,2573.648,2573.65,2573.653,2573.655,2573.657,2573.66,2573.698,2573.7,2573.702,2573.704,2573.706,2573.708,2573.711,2573.75,2573.752,2573.754,2573.758,2573.76,2573.762,2573.767,2573.81,2573.812,2573.814,2573.817,2573.819,2573.821,2573.827,2573.868,2573.87,2573.872,2573.875,2573.877,2573.879,2573.885,2573.923,2573.925,2573.927,2573.929,2573.931,2573.933,2573.936,2573.978,2573.98,2573.982,2573.985,2573.987,2573.989,2573.992,2574.035,2574.037,2574.039,2574.042,2574.044,2574.046,2574.05,2574.089,2574.091,2574.093,2574.095,2574.097,2574.099,2574.101,2574.14,2574.142,2574.144,2574.147,2574.149,2574.151,2574.155,2574.196,2574.198,2574.2,2574.203,2574.205,2574.207,2574.211,2574.254,2574.256,2574.258,2574.262,2574.264,2574.266,2574.27,2574.309,2574.311,2574.313,2574.316,2574.318,2574.32,2574.323,2574.364,2574.366,2574.368,2574.371,2574.373,2574.375,2574.381,2574.419,2574.421,2574.423,2574.427,2574.429,2574.431,2574.435,2574.477,2574.479,2574.481,2574.484,2574.486,2574.488,2574.493,2574.531,2574.533,2574.535,2574.538,2574.54,2574.542,2574.548,2574.588,2574.59,2574.592,2574.594,2574.596,2574.598,2574.602,2574.643,2574.645,2574.647,2574.652,2574.654,2574.656,2574.66,2574.702,2574.704,2574.706,2574.71,2574.712,2574.714,2574.718,2574.757,2574.759,2574.761,2574.764,2574.766,2574.768,2574.772,2574.814,2574.816,2574.818,2574.821,2574.823,2574.825,2574.831,2574.87,2574.872,2574.874,2574.877,2574.879,2574.881,2574.885,2574.926,2574.928,2574.93,2574.936,2574.938,2574.94,2574.943,2574.981,2574.983,2574.985,2574.988,2574.99,2574.992,2574.997,2575.037,2575.039,2575.041,2575.044,2575.046,2575.048,2575.052,2575.094,2575.096,2575.098,2575.102,2575.104,2575.106,2575.11,2575.152,2575.154,2575.156,2575.16,2575.162,2575.164,2575.168,2575.206,2575.208,2575.21,2575.213,2575.215,2575.217,2575.223,2575.264,2575.266,2575.268,2575.272,2575.274,2575.276,2575.281,2575.322,2575.324,2575.326,2575.33,2575.332,2575.334,2575.34,2575.38,2575.382,2575.384,2575.387,2575.389,2575.391,2575.395,2575.434,2575.436,2575.438,2575.441,2575.443,2575.445,2575.448,2575.486,2575.488,2575.49,2575.492,2575.494,2575.496,2575.5,2575.539,2575.541,2575.543,2575.547,2575.549,2575.551,2575.555,2575.595,2575.597,2575.599,2575.602,2575.604,2575.606,2575.61,2575.651,2575.653,2575.655,2575.659,2575.661,2575.663,2575.667,2575.71,2575.712,2575.714,2575.717,2575.719,2575.721,2575.725,2575.769,2575.771,2575.773,2575.779,2575.781,2575.783,2575.787,2575.829,2575.831,2575.833,2575.839,2575.841,2575.843,2575.846,2575.89,2575.892,2575.894,2575.897,2575.899,2575.901,2575.905,2575.947,2575.949,2575.951,2575.955,2575.957,2575.959,2575.962,2576.004,2576.006,2576.008,2576.011,2576.013,2576.015,2576.018,2576.063,2576.065,2576.067,2576.07,2576.072,2576.074,2576.08,2576.117,2576.119,2576.121,2576.123,2576.125,2576.127,2576.131,2576.173,2576.175,2576.177,2576.18,2576.182,2576.184,2576.187,2576.228,2576.23,2576.232,2576.235,2576.237,2576.239,2576.242,2576.285,2576.287,2576.289,2576.292,2576.294,2576.296,2576.301,2576.34,2576.342,2576.344,2576.347,2576.349,2576.351,2576.355,2576.394,2576.396,2576.398,2576.401,2576.403,2576.405,2576.409,2576.45,2576.452,2576.454,2576.457,2576.459,2576.461,2576.465,2576.505,2576.507,2576.509,2576.512,2576.514,2576.516,2576.52,2576.559,2576.561,2576.563,2576.566,2576.568,2576.57,2576.574,2576.618,2576.62,2576.622,2576.627,2576.629,2576.631,2576.636,2576.678,2576.68,2576.682,2576.685,2576.687,2576.689,2576.695,2576.734,2576.736,2576.738,2576.742,2576.744,2576.746,2576.752,2576.788,2576.79,2576.792,2576.795,2576.797,2576.799,2576.802,2576.845,2576.847,2576.849,2576.853,2576.855,2576.857,2576.861,2576.901,2576.903,2576.905,2576.908,2576.91,2576.912,2576.918,2576.959,2576.961,2576.963,2576.966,2576.968,2576.97,2576.975,2577.015,2577.017,2577.019,2577.022,2577.024,2577.026,2577.03,2577.069,2577.071,2577.073,2577.076,2577.078,2577.08,2577.084,2577.125,2577.127,2577.129,2577.133,2577.135,2577.137,2577.14,2577.179,2577.181,2577.183,2577.187,2577.189,2577.191,2577.196,2577.237,2577.239,2577.241,2577.247,2577.249,2577.251,2577.254,2577.295,2577.297,2577.299,2577.302,2577.304,2577.306,2577.312,2577.35,2577.352,2577.354,2577.358,2577.36,2577.362,2577.365,2577.404,2577.406,2577.408,2577.412,2577.414,2577.416,2577.42,2577.461,2577.463,2577.465,2577.47,2577.472,2577.474,2577.478,2577.522,2577.524,2577.526,2577.529,2577.531,2577.533,2577.537,2577.579,2577.581,2577.583,2577.586,2577.588,2577.59,2577.593,2577.634,2577.636,2577.638,2577.642,2577.644,2577.646,2577.65,2577.689,2577.691,2577.693,2577.695,2577.697,2577.699,2577.703,2577.744,2577.746,2577.748,2577.753,2577.755,2577.757,2577.76,2577.8,2577.802,2577.804,2577.807,2577.809,2577.811,2577.815,2577.855,2577.857,2577.859,2577.862,2577.864,2577.866,2577.87,2577.912,2577.914,2577.916,2577.922,2577.924,2577.926,2577.929,2577.972,2577.974,2577.976,2577.979,2577.981,2577.983,2577.986,2578.028,2578.03,2578.032,2578.035,2578.037,2578.039,2578.044,2578.084,2578.086,2578.088,2578.091,2578.093,2578.095,2578.1,2578.14,2578.142,2578.144,2578.147,2578.149,2578.151,2578.155,2578.195,2578.197,2578.199,2578.202,2578.204,2578.206,2578.209,2578.253,2578.255,2578.257,2578.26,2578.262,2578.264,2578.267,2578.309,2578.311,2578.313,2578.317,2578.319,2578.321,2578.325,2578.365,2578.367,2578.369,2578.372,2578.374,2578.376,2578.38,2578.42,2578.422,2578.424,2578.427,2578.429,2578.431,2578.434,2578.474,2578.476,2578.478,2578.481,2578.483,2578.485,2578.491,2578.53,2578.532,2578.534,2578.537,2578.539,2578.541,2578.545,2578.586,2578.588,2578.59,2578.594,2578.596,2578.598,2578.601,2578.643,2578.645,2578.647,2578.65,2578.652,2578.654,2578.66,2578.699,2578.701,2578.703,2578.706,2578.708,2578.71,2578.713,2578.755,2578.757,2578.759,2578.763,2578.765,2578.767,2578.772,2578.813,2578.815,2578.818,2578.82,2578.822,2578.826,2578.828,2578.869,2578.874,2578.876,2578.878,2578.882,2578.884,2578.886,2578.927,2578.929,2578.931,2578.933,2578.936,2578.938,2578.94,2578.98,2578.983,2578.985,2578.987,2578.99,2578.992,2578.994,2579.035,2579.04,2579.042,2579.044,2579.047,2579.049,2579.051,2579.093,2579.095,2579.097,2579.099,2579.102,2579.104,2579.106,2579.146,2579.149,2579.151,2579.153,2579.156,2579.158,2579.16,2579.201,2579.204,2579.206,2579.208,2579.212,2579.214,2579.216,2579.258,2579.263,2579.265,2579.267,2579.27,2579.272,2579.274,2579.313,2579.318,2579.32,2579.322,2579.325,2579.327,2579.329,2579.369,2579.371,2579.373,2579.375,2579.378,2579.38,2579.382,2579.423,2579.425,2579.427,2579.429,2579.432,2579.434,2579.436,2579.478,2579.482,2579.484,2579.486,2579.49,2579.492,2579.494,2579.534,2579.539,2579.541,2579.543,2579.546,2579.548,2579.55,2579.591,2579.593,2579.595,2579.597,2579.6,2579.602,2579.604,2579.643,2579.647,2579.649,2579.651,2579.655,2579.657,2579.659,2579.703,2579.707,2579.709,2579.711,2579.715,2579.717,2579.719,2579.759,2579.761,2579.763,2579.765,2579.768,2579.77,2579.772,2579.812,2579.816,2579.818,2579.82,2579.823,2579.825,2579.827,2579.865,2579.867,2579.869,2579.871,2579.874,2579.876,2579.878,2579.921,2579.925,2579.927,2579.929,2579.932,2579.934,2579.936,2579.977,2579.982,2579.984,2579.986,2579.989,2579.991,2579.993,2580.032,2580.035,2580.037,2580.039,2580.042,2580.044,2580.046,2580.085,2580.09,2580.092,2580.094,2580.097,2580.099,2580.101,2580.143,2580.148,2580.15,2580.152,2580.155,2580.157,2580.159,2580.199,2580.203,2580.205,2580.207,2580.211,2580.213,2580.215,2580.256,2580.259,2580.261,2580.263,2580.267,2580.269,2580.271,2580.311,2580.317,2580.319,2580.321,2580.324,2580.326,2580.328,2580.369,2580.375,2580.377,2580.379,2580.385,2580.387,2580.389,2580.431,2580.436,2580.438,2580.44,2580.443,2580.445,2580.447,2580.49,2580.494,2580.496,2580.498,2580.502,2580.504,2580.506,2580.547,2580.551,2580.553,2580.555,2580.559,2580.561,2580.563,2580.604,2580.606,2580.608,2580.61,2580.613,2580.615,2580.617,2580.66,2580.662,2580.664,2580.666,2580.669,2580.671,2580.673,2580.715,2580.72,2580.722,2580.724,2580.73,2580.732,2580.734,2580.774,2580.78,2580.782,2580.784,2580.786,2580.788,2580.793,2580.833,2580.835,2580.837,2580.84,2580.842,2580.844,2580.85,2580.893,2580.895,2580.897,2580.9,2580.902,2580.904,2580.91,2580.949,2580.951,2580.953,2580.956,2580.958,2580.96,2580.966,2581.006,2581.008,2581.01,2581.013,2581.015,2581.017,2581.021,2581.064,2581.066,2581.068,2581.074,2581.076,2581.078,2581.081,2581.124,2581.126,2581.128,2581.134,2581.136,2581.138,2581.141,2581.186,2581.188,2581.19,2581.193,2581.195,2581.197,2581.201,2581.24,2581.242,2581.244,2581.247,2581.249,2581.251,2581.256,2581.297,2581.299,2581.301,2581.305,2581.307,2581.309,2581.313,2581.353,2581.355,2581.357,2581.36,2581.362,2581.364,2581.368,2581.411,2581.413,2581.415,2581.418,2581.42,2581.422,2581.426,2581.469,2581.471,2581.473,2581.479,2581.481,2581.483,2581.486,2581.524,2581.526,2581.528,2581.531,2581.533,2581.535,2581.538,2581.579,2581.581,2581.583,2581.586,2581.588,2581.59,2581.596,2581.637,2581.639,2581.641,2581.644,2581.646,2581.648,2581.652,2581.693,2581.695,2581.697,2581.7,2581.702,2581.704,2581.707,2581.746,2581.748,2581.75,2581.753,2581.755,2581.757,2581.763,2581.803,2581.805,2581.807,2581.81,2581.812,2581.814,2581.818,2581.861,2581.863,2581.865,2581.868,2581.87,2581.872,2581.876,2581.918,2581.92,2581.922,2581.926,2581.928,2581.93,2581.934,2581.977,2581.979,2581.981,2581.984,2581.986,2581.988,2581.991,2582.034,2582.036,2582.038,2582.041,2582.043,2582.045,2582.049,2582.092,2582.094,2582.096,2582.1,2582.102,2582.104,2582.109,2582.151,2582.153,2582.155,2582.158,2582.16,2582.162,2582.166,2582.208,2582.21,2582.212,2582.215,2582.217,2582.219,2582.223,2582.266,2582.268,2582.27,2582.273,2582.275,2582.277,2582.281,2582.32,2582.322,2582.324,2582.327,2582.329,2582.331,2582.335,2582.378,2582.38,2582.382,2582.386,2582.388,2582.39,2582.395,2582.436,2582.438,2582.44,2582.444,2582.446,2582.448,2582.454,2582.491,2582.493,2582.495,2582.497,2582.499,2582.503,2582.505,2582.546,2582.552,2582.554,2582.556,2582.558,2582.56,2582.562,2582.603,2582.605,2582.607,2582.609,2582.612,2582.614,2582.616,2582.658,2582.662,2582.664,2582.666,2582.67,2582.672,2582.674,2582.714,2582.716,2582.718,2582.72,2582.722,2582.724,2582.727,2582.768,2582.77,2582.772,2582.776,2582.778,2582.78,2582.783,2582.824,2582.826,2582.828,2582.831,2582.833,2582.835,2582.84,2582.881,2582.883,2582.885,2582.888,2582.89,2582.892,2582.896,2582.935,2582.937,2582.939,2582.942,2582.944,2582.946,2582.95,2582.993,2582.995,2582.997,2583.001,2583.003,2583.005,2583.011,2583.048,2583.05,2583.052,2583.055,2583.057,2583.059,2583.063,2583.104,2583.106,2583.108,2583.114,2583.116,2583.118,2583.123,2583.162,2583.164,2583.166,2583.171,2583.173,2583.175,2583.178,2583.216,2583.218,2583.22,2583.223,2583.225,2583.227,2583.23,2583.268,2583.27,2583.272,2583.275,2583.277,2583.279,2583.282,2583.321,2583.323,2583.325,2583.328,2583.33,2583.332,2583.335,2583.374,2583.376,2583.378,2583.38,2583.382,2583.385,2583.388,2583.427,2583.429,2583.431,2583.434,2583.436,2583.438,2583.444,2583.484,2583.486,2583.488,2583.491,2583.493,2583.495,2583.501,2583.541,2583.543,2583.545,2583.548,2583.55,2583.552,2583.556,2583.598,2583.6,2583.602,2583.605,2583.607,2583.609,2583.613,2583.652,2583.654,2583.656,2583.659,2583.661,2583.663,2583.665,2583.704,2583.706,2583.708,2583.71,2583.713,2583.715,2583.718,2583.758,2583.76,2583.762,2583.765,2583.767,2583.769,2583.771,2583.813,2583.819,2583.821,2583.823,2583.826,2583.828,2583.83,2583.873,2583.877,2583.879,2583.881,2583.885,2583.887,2583.889,2583.93,2583.934,2583.936,2583.938,2583.941,2583.943,2583.945,2583.988,2583.99,2583.992,2583.994,2583.996,2583.998,2584.0,2584.041,2584.045,2584.047,2584.049,2584.053,2584.055,2584.057,2584.097,2584.1,2584.102,2584.105,2584.107,2584.109,2584.111,2584.151,2584.156,2584.158,2584.16,2584.163,2584.165,2584.167,2584.21,2584.214,2584.216,2584.218,2584.224,2584.226,2584.228,2584.267,2584.269,2584.271,2584.273,2584.276,2584.278,2584.28,2584.323,2584.327,2584.329,2584.331,2584.335,2584.337,2584.339,2584.379,2584.383,2584.385,2584.387,2584.39,2584.392,2584.394,2584.436,2584.441,2584.443,2584.445,2584.448,2584.45,2584.452,2584.493,2584.498,2584.5,2584.502,2584.505,2584.507,2584.509,2584.55,2584.552,2584.554,2584.556,2584.559,2584.561,2584.563,2584.605,2584.61,2584.612,2584.614,2584.617,2584.619,2584.621,2584.661,2584.666,2584.668,2584.67,2584.673,2584.675,2584.677,2584.718,2584.723,2584.725,2584.727,2584.733,2584.735,2584.737,2584.778,2584.783,2584.785,2584.787,2584.792,2584.794,2584.796,2584.837,2584.841,2584.843,2584.845,2584.849,2584.851,2584.853,2584.893,2584.898,2584.9,2584.902,2584.905,2584.907,2584.909,2584.948,2584.953,2584.955,2584.957,2584.96,2584.962,2584.964,2585.005,2585.01,2585.012,2585.014,2585.02,2585.022,2585.024,2585.066,2585.07,2585.072,2585.074,2585.08,2585.082,2585.084,2585.126,2585.129,2585.131,2585.133,2585.138,2585.14,2585.142,2585.183,2585.185,2585.187,2585.189,2585.192,2585.194,2585.196,2585.238,2585.242,2585.244,2585.246,2585.25,2585.252,2585.254,2585.295,2585.298,2585.3,2585.302,2585.305,2585.307,2585.309,2585.35,2585.354,2585.356,2585.358,2585.361,2585.363,2585.365,2585.406,2585.411,2585.413,2585.415,2585.418,2585.42,2585.422,2585.464,2585.468,2585.47,2585.472,2585.477,2585.479,2585.481,2585.523,2585.527,2585.529,2585.531,2585.535,2585.537,2585.539,2585.581,2585.583,2585.585,2585.587,2585.589,2585.591,2585.593,2585.635,2585.64,2585.642,2585.644,2585.649,2585.651,2585.653,2585.692,2585.694,2585.696,2585.698,2585.701,2585.703,2585.705,2585.746,2585.75,2585.752,2585.754,2585.758,2585.76,2585.762,2585.803,2585.808,2585.81,2585.812,2585.815,2585.817,2585.819,2585.861,2585.866,2585.868,2585.87,2585.873,2585.875,2585.877,2585.918,2585.92,2585.922,2585.924,2585.927,2585.929,2585.931,2585.973,2585.977,2585.979,2585.981,2585.985,2585.987,2585.989,2586.028,2586.032,2586.034,2586.036,2586.039,2586.041,2586.043,2586.085,2586.088,2586.09,2586.092,2586.096,2586.098,2586.1,2586.141,2586.143,2586.145,2586.147,2586.15,2586.152,2586.154,2586.196,2586.201,2586.203,2586.205,2586.208,2586.21,2586.212,2586.251,2586.256,2586.258,2586.26,2586.263,2586.265,2586.267,2586.311,2586.316,2586.318,2586.32,2586.323,2586.325,2586.327,2586.367,2586.372,2586.374,2586.376,2586.382,2586.384,2586.386,2586.425,2586.427,2586.429,2586.431,2586.434,2586.436,2586.438,2586.48,2586.482,2586.484,2586.487,2586.489,2586.491,2586.495,2586.537,2586.539,2586.541,2586.545,2586.547,2586.549,2586.553,2586.597,2586.599,2586.601,2586.604,2586.606,2586.608,2586.611,2586.654,2586.656,2586.658,2586.662,2586.664,2586.666,2586.669,2586.712,2586.714,2586.716,2586.72,2586.722,2586.724,2586.73,2586.767,2586.769,2586.771,2586.775,2586.777,2586.779,2586.783,2586.823,2586.825,2586.827,2586.83,2586.832,2586.834,2586.837,2586.878,2586.88,2586.882,2586.886,2586.888,2586.89,2586.896,2586.937,2586.939,2586.941,2586.944,2586.946,2586.948,2586.953,2586.992,2586.994,2586.996,2586.999,2587.001,2587.003,2587.007,2587.049,2587.051,2587.053,2587.057,2587.059,2587.061,2587.065,2587.104,2587.106,2587.108,2587.111,2587.113,2587.115,2587.119,2587.162,2587.164,2587.166,2587.17,2587.172,2587.174,2587.178,2587.217,2587.219,2587.221,2587.223,2587.225,2587.227,2587.231,2587.273,2587.275,2587.277,2587.283,2587.285,2587.287,2587.29,2587.33,2587.332,2587.334,2587.337,2587.339,2587.341,2587.345,2587.388,2587.39,2587.392,2587.395,2587.397,2587.399,2587.404,2587.443,2587.445,2587.447,2587.45,2587.452,2587.454,2587.458,2587.499,2587.501,2587.503,2587.509,2587.511,2587.513,2587.516,2587.561,2587.563,2587.565,2587.568,2587.57,2587.572,2587.576,2587.617,2587.619,2587.621,2587.627,2587.629,2587.631,2587.634,2587.676,2587.678,2587.68,2587.684,2587.686,2587.688,2587.691,2587.733,2587.735,2587.737,2587.74,2587.742,2587.744,2587.748,2587.791,2587.793,2587.795,2587.798,2587.8,2587.802,2587.806,2587.844,2587.846,2587.848,2587.851,2587.853,2587.855,2587.859,2587.901,2587.907,2587.909,2587.911,2587.915,2587.917,2587.919,2587.962,2587.966,2587.968,2587.97,2587.973,2587.975,2587.977,2588.018,2588.023,2588.025,2588.027,2588.029,2588.031,2588.033,2588.075,2588.077,2588.079,2588.081,2588.084,2588.086,2588.088,2588.131,2588.133,2588.135,2588.139,2588.141,2588.143,2588.147,2588.189,2588.191,2588.193,2588.199,2588.201,2588.203,2588.206,2588.248,2588.25,2588.252,2588.258,2588.26,2588.262,2588.265,2588.304,2588.306,2588.308,2588.311,2588.313,2588.315,2588.319,2588.362,2588.364,2588.366,2588.371,2588.373,2588.375,2588.38,2588.422,2588.424,2588.426,2588.43,2588.432,2588.434,2588.439,2588.48,2588.482,2588.484,2588.488,2588.49,2588.492,2588.496,2588.538,2588.54,2588.542,2588.545,2588.547,2588.549,2588.555,2588.593,2588.595,2588.597,2588.6,2588.602,2588.604,2588.607,2588.649,2588.651,2588.653,2588.656,2588.658,2588.66,2588.663,2588.707,2588.709,2588.711,2588.715,2588.717,2588.719,2588.723,2588.766,2588.768,2588.77,2588.773,2588.775,2588.777,2588.781,2588.818,2588.82,2588.822,2588.827,2588.829,2588.831,2588.834,2588.877,2588.879,2588.881,2588.885,2588.887,2588.889,2588.893,2588.933,2588.935,2588.937,2588.94,2588.942,2588.944,2588.947,2588.988,2588.99,2588.992,2588.996,2588.998,2589.0,2589.004,2589.045,2589.047,2589.049,2589.053,2589.055,2589.057,2589.061,2589.103,2589.105,2589.107,2589.11,2589.112,2589.114,2589.118,2589.159,2589.161,2589.163,2589.166,2589.168,2589.17,2589.174,2589.217,2589.219,2589.221,2589.225,2589.227,2589.229,2589.235,2589.274,2589.276,2589.278,2589.281,2589.283,2589.285,2589.29,2589.333,2589.335,2589.337,2589.34,2589.342,2589.344,2589.348,2589.388,2589.39,2589.392,2589.398,2589.4,2589.402,2589.405,2589.445,2589.447,2589.449,2589.452,2589.454,2589.456,2589.46,2589.502,2589.504,2589.506,2589.51,2589.512,2589.514,2589.519,2589.559,2589.561,2589.563,2589.566,2589.568,2589.57,2589.576,2589.616,2589.618,2589.62,2589.623,2589.625,2589.627,2589.631,2589.673,2589.675,2589.677,2589.683,2589.685,2589.687,2589.69,2589.729,2589.731,2589.733,2589.736,2589.738,2589.74,2589.744,2589.787,2589.789,2589.791,2589.795,2589.797,2589.799,2589.804,2589.844,2589.846,2589.848,2589.851,2589.853,2589.855,2589.86,2589.9,2589.902,2589.904,2589.909,2589.911,2589.913,2589.917,2589.96,2589.962,2589.964,2589.967,2589.969,2589.971,2589.975,2590.015,2590.017,2590.019,2590.023,2590.025,2590.027,2590.031,2590.07,2590.072,2590.076,2590.078,2590.08,2590.085,2590.087,2590.129,2590.133,2590.135,2590.137,2590.141,2590.143,2590.145,2590.188,2590.192,2590.194,2590.196,2590.2,2590.202,2590.204,2590.244,2590.249,2590.251,2590.253,2590.257,2590.259,2590.261,2590.302,2590.306,2590.308,2590.31,2590.314,2590.316,2590.318,2590.359,2590.365,2590.367,2590.369,2590.372,2590.374,2590.376,2590.418,2590.42,2590.422,2590.424,2590.427,2590.429,2590.431,2590.472,2590.475,2590.477,2590.479,2590.482,2590.484,2590.486,2590.527,2590.532,2590.534,2590.536,2590.538,2590.54,2590.542,2590.582,2590.584,2590.586,2590.588,2590.591,2590.593,2590.595,2590.638,2590.64,2590.642,2590.645,2590.647,2590.649,2590.653,2590.694,2590.696,2590.698,2590.7,2590.702,2590.704,2590.706,2590.748,2590.75,2590.752,2590.755,2590.757,2590.759,2590.765,2590.806,2590.808,2590.81,2590.813,2590.815,2590.817,2590.819,2590.861,2590.863,2590.865,2590.868,2590.87,2590.872,2590.876,2590.918,2590.92,2590.922,2590.925,2590.927,2590.929,2590.932,2590.97,2590.972,2590.974,2590.977,2590.979,2590.981,2590.985,2591.024,2591.026,2591.028,2591.032,2591.034,2591.036,2591.04,2591.079,2591.081,2591.083,2591.086,2591.088,2591.09,2591.094,2591.137,2591.139,2591.141,2591.145,2591.147,2591.149,2591.155,2591.194,2591.196,2591.198,2591.202,2591.204,2591.206,2591.21,2591.249,2591.251,2591.253,2591.259,2591.261,2591.263,2591.266,2591.309,2591.311,2591.313,2591.317,2591.319,2591.321,2591.326,2591.369,2591.371,2591.376,2591.378,2591.38,2591.383,2591.385,2591.424,2591.426,2591.428,2591.432,2591.434,2591.436,2591.44,2591.48,2591.482,2591.484,2591.486,2591.488,2591.49,2591.495,2591.537,2591.539,2591.541,2591.543,2591.546,2591.548,2591.55,2591.594,2591.596,2591.598,2591.6,2591.603,2591.605,2591.608,2591.649,2591.651,2591.653,2591.656,2591.658,2591.66,2591.663,2591.709,2591.711,2591.713,2591.717,2591.719,2591.721,2591.725,2591.766,2591.768,2591.77,2591.774,2591.776,2591.778,2591.784,2591.823,2591.825,2591.827,2591.83,2591.832,2591.834,2591.837,2591.88,2591.882,2591.884,2591.887,2591.889,2591.891,2591.895,2591.935,2591.937,2591.939,2591.942,2591.944,2591.946,2591.95,2591.99,2591.992,2591.994,2591.996,2591.998,2592.0,2592.006,2592.047,2592.049,2592.051,2592.053,2592.057,2592.059,2592.061,2592.105,2592.107,2592.109,2592.113,2592.115,2592.117,2592.121,2592.165,2592.167,2592.169,2592.173,2592.175,2592.177,2592.181,2592.223,2592.225,2592.227,2592.23,2592.232,2592.234,2592.238,2592.277,2592.279,2592.281,2592.283,2592.287,2592.289,2592.291,2592.333,2592.335,2592.337,2592.339,2592.342,2592.344,2592.346,2592.387,2592.389,2592.391,2592.395,2592.397,2592.399,2592.402,2592.444,2592.446,2592.448,2592.452,2592.454,2592.456,2592.46,2592.5,2592.502,2592.504,2592.507,2592.509,2592.511,2592.515,2592.557,2592.559,2592.561,2592.564,2592.566,2592.568,2592.572,2592.615,2592.617,2592.619,2592.622,2592.624,2592.626,2592.63,2592.673,2592.675,2592.677,2592.682,2592.684,2592.686,2592.69,2592.732,2592.734,2592.736,2592.741,2592.743,2592.745,2592.749,2592.789,2592.791,2592.793,2592.796,2592.798,2592.8,2592.805,2592.843,2592.845,2592.847,2592.85,2592.852,2592.854,2592.858,2592.901,2592.903,2592.905,2592.908,2592.91,2592.912,2592.916,2592.955,2592.957,2592.959,2592.962,2592.964,2592.966,2592.97,2593.013,2593.015,2593.017,2593.021,2593.023,2593.025,2593.03,2593.073,2593.075,2593.077,2593.08,2593.082,2593.084,2593.089,2593.129,2593.131,2593.133,2593.137,2593.139,2593.141,2593.145,2593.187,2593.193,2593.195,2593.197,2593.2,2593.202,2593.204,2593.246,2593.25,2593.252,2593.254,2593.258,2593.26,2593.262,2593.301,2593.305,2593.307,2593.309,2593.313,2593.315,2593.317,2593.36,2593.365,2593.367,2593.369,2593.372,2593.374,2593.376,2593.42,2593.424,2593.426,2593.428,2593.432,2593.434,2593.436,2593.48,2593.486,2593.488,2593.49,2593.493,2593.495,2593.497,2593.539,2593.543,2593.545,2593.547,2593.55,2593.552,2593.554,2593.597,2593.602,2593.604,2593.606,2593.61,2593.612,2593.614,2593.654,2593.659,2593.661,2593.663,2593.667,2593.669,2593.671,2593.713,2593.718,2593.72,2593.722,2593.725,2593.727,2593.729,2593.769,2593.771,2593.773,2593.775,2593.778,2593.78,2593.782,2593.827,2593.832,2593.834,2593.836,2593.839,2593.841,2593.843,2593.885,2593.89,2593.892,2593.894,2593.897,2593.899,2593.901,2593.942,2593.947,2593.949,2593.951,2593.955,2593.957,2593.959,2594.001,2594.003,2594.005,2594.007,2594.01,2594.012,2594.014,2594.058,2594.06,2594.062,2594.065,2594.067,2594.069,2594.073,2594.115,2594.117,2594.119,2594.122,2594.124,2594.126,2594.13,2594.17,2594.172,2594.174,2594.177,2594.179,2594.181,2594.185,2594.225,2594.227,2594.231,2594.233,2594.235,2594.24,2594.242,2594.282,2594.288,2594.29,2594.292,2594.295,2594.297,2594.299,2594.34,2594.344,2594.346,2594.348,2594.351,2594.353,2594.355,2594.397,2594.4,2594.402,2594.404,2594.408,2594.41,2594.412,2594.453,2594.455,2594.457,2594.459,2594.462,2594.464,2594.466,2594.509,2594.513,2594.515,2594.517,2594.521,2594.523,2594.525,2594.568,2594.573,2594.575,2594.577,2594.58,2594.582,2594.584,2594.624,2594.628,2594.63,2594.632,2594.635,2594.637,2594.639,2594.68,2594.684,2594.686,2594.688,2594.692,2594.694,2594.696,2594.737,2594.742,2594.744,2594.746,2594.75,2594.752,2594.754,2594.795,2594.8,2594.802,2594.804,2594.807,2594.809,2594.811,2594.853,2594.855,2594.857,2594.86,2594.862,2594.864,2594.868,2594.911,2594.913,2594.915,2594.917,2594.919,2594.921,2594.925,2594.966,2594.968,2594.97,2594.975,2594.977,2594.979,2594.983,2595.023,2595.025,2595.027,2595.03,2595.032,2595.034,2595.039,2595.081,2595.083,2595.085,2595.089,2595.091,2595.093,2595.099,2595.142,2595.144,2595.146,2595.149,2595.151,2595.153,2595.158,2595.198,2595.2,2595.202,2595.205,2595.207,2595.209,2595.213,2595.255,2595.257,2595.259,2595.262,2595.264,2595.266,2595.27,2595.313,2595.315,2595.317,2595.32,2595.322,2595.324,2595.327,2595.367,2595.369,2595.371,2595.375,2595.377,2595.379,2595.383,2595.428,2595.43,2595.432,2595.435,2595.437,2595.439,2595.443,2595.487,2595.489,2595.491,2595.494,2595.496,2595.498,2595.503,2595.543,2595.545,2595.547,2595.551,2595.553,2595.555,2595.561,2595.6,2595.602,2595.604,2595.607,2595.609,2595.611,2595.615,2595.659,2595.661,2595.663,2595.667,2595.669,2595.671,2595.675,2595.716,2595.718,2595.72,2595.726,2595.728,2595.73,2595.733,2595.774,2595.776,2595.778,2595.781,2595.783,2595.785,2595.789,2595.831,2595.833,2595.835,2595.838,2595.84,2595.842,2595.848,2595.887,2595.889,2595.891,2595.895,2595.897,2595.899,2595.903,2595.943,2595.945,2595.947,2595.952,2595.954,2595.956,2595.959,2595.999,2596.001,2596.003,2596.006,2596.008,2596.01,2596.014,2596.056,2596.058,2596.06,2596.063,2596.065,2596.067,2596.072,2596.114,2596.116,2596.118,2596.121,2596.123,2596.125,2596.13,2596.172,2596.174,2596.176,2596.18,2596.182,2596.184,2596.188,2596.23,2596.232,2596.234,2596.237,2596.239,2596.241,2596.245,2596.287,2596.289,2596.291,2596.297,2596.299,2596.301,2596.304,2596.345,2596.347,2596.349,2596.352,2596.354,2596.356,2596.36,2596.4,2596.402,2596.404,2596.408,2596.41,2596.412,2596.417,2596.458,2596.46,2596.462,2596.465,2596.467,2596.469,2596.473,2596.515,2596.517,2596.519,2596.522,2596.524,2596.526,2596.53,2596.576,2596.578,2596.58,2596.584,2596.586,2596.588,2596.592,2596.635,2596.637,2596.639,2596.642,2596.644,2596.646,2596.65,2596.691,2596.693,2596.695,2596.699,2596.701,2596.703,2596.706,2596.749,2596.751,2596.753,2596.756,2596.758,2596.76,2596.763,2596.805,2596.807,2596.809,2596.812,2596.814,2596.816,2596.82,2596.86,2596.862,2596.864,2596.867,2596.869,2596.871,2596.875,2596.914,2596.916,2596.918,2596.921,2596.923,2596.925,2596.929,2596.968,2596.97,2596.972,2596.974,2596.976,2596.978,2596.982,2597.023,2597.025,2597.027,2597.029,2597.031,2597.033,2597.037,2597.08,2597.082,2597.084,2597.087,2597.089,2597.091,2597.095,2597.137,2597.139,2597.141,2597.145,2597.147,2597.149,2597.153,2597.191,2597.193,2597.195,2597.197,2597.199,2597.201,2597.205,2597.247,2597.249,2597.251,2597.254,2597.256,2597.258,2597.262,2597.301,2597.303,2597.305,2597.308,2597.31,2597.312,2597.315,2597.355,2597.357,2597.359,2597.363,2597.365,2597.367,2597.372,2597.413,2597.415,2597.417,2597.42,2597.422,2597.424,2597.428,2597.47,2597.472,2597.474,2597.477,2597.479,2597.481,2597.484,2597.529,2597.531,2597.533,2597.536,2597.538,2597.54,2597.544,2597.588,2597.59,2597.592,2597.596,2597.598,2597.6,2597.604,2597.645,2597.647,2597.651,2597.653,2597.655,2597.661,2597.663,2597.705,2597.71,2597.712,2597.714,2597.72,2597.722,2597.724,2597.763,2597.767,2597.769,2597.771,2597.775,2597.777,2597.779,2597.821,2597.823,2597.825,2597.827,2597.83,2597.832,2597.834,2597.876,2597.881,2597.883,2597.885,2597.89,2597.892,2597.894,2597.936,2597.938,2597.94,2597.942,2597.945,2597.947,2597.949,2597.991,2597.996,2597.998,2598.0,2598.006,2598.008,2598.01,2598.049,2598.051,2598.053,2598.055,2598.058,2598.06,2598.062,2598.105,2598.109,2598.111,2598.113,2598.116,2598.118,2598.12,2598.162,2598.164,2598.166,2598.168,2598.171,2598.173,2598.175,2598.216,2598.221,2598.223,2598.225,2598.231,2598.233,2598.235,2598.275,2598.279,2598.281,2598.283,2598.287,2598.289,2598.291,2598.333,2598.337,2598.339,2598.341,2598.345,2598.347,2598.349,2598.392,2598.397,2598.399,2598.401,2598.404,2598.406,2598.408,2598.451,2598.455,2598.457,2598.459,2598.462,2598.464,2598.466,2598.508,2598.51,2598.512,2598.514,2598.517,2598.519,2598.521,2598.563,2598.568,2598.57,2598.572,2598.575,2598.577,2598.579,2598.619,2598.624,2598.626,2598.628,2598.631,2598.633,2598.635,2598.677,2598.682,2598.684,2598.686,2598.69,2598.692,2598.694,2598.734,2598.739,2598.741,2598.743,2598.746,2598.748,2598.75,2598.792,2598.797,2598.799,2598.801,2598.804,2598.806,2598.808,2598.85,2598.853,2598.855,2598.857,2598.862,2598.864,2598.866,2598.908,2598.91,2598.912,2598.914,2598.917,2598.919,2598.921,2598.964,2598.968,2598.97,2598.972,2598.976,2598.978,2598.98,2599.023,2599.025,2599.027,2599.031,2599.033,2599.035,2599.04,2599.081,2599.083,2599.085,2599.089,2599.091,2599.093,2599.097,2599.14,2599.142,2599.144,2599.147,2599.149,2599.151,2599.155,2599.196,2599.198,2599.2,2599.206,2599.208,2599.21,2599.213,2599.253,2599.255,2599.257,2599.26,2599.262,2599.264,2599.268,2599.312,2599.314,2599.316,2599.319,2599.321,2599.323,2599.329,2599.369,2599.371,2599.373,2599.377,2599.379,2599.381,2599.385,2599.425,2599.427,2599.429,2599.433,2599.435,2599.437,2599.441,2599.482,2599.484,2599.486,2599.49,2599.492,2599.494,2599.497,2599.538,2599.54,2599.542,2599.546,2599.548,2599.55,2599.554,2599.593,2599.595,2599.597,2599.6,2599.602,2599.604,2599.608,2599.651,2599.653,2599.655,2599.658,2599.66,2599.662,2599.666,2599.71,2599.712,2599.714,2599.717,2599.719,2599.721,2599.725,2599.767,2599.769,2599.771,2599.774,2599.776,2599.778,2599.781,2599.823,2599.825,2599.827,2599.83,2599.832,2599.834,2599.84,2599.878,2599.88,2599.882,2599.885,2599.887,2599.889,2599.893,2599.935,2599.937,2599.939,2599.943,2599.945,2599.947,2599.951,2599.992,2599.994,2599.996,2600.0,2600.002,2600.004,2600.008,2600.047,2600.049,2600.051,2600.055,2600.057,2600.059,2600.064,2600.105,2600.107,2600.109,2600.112,2600.114,2600.116,2600.12,2600.162,2600.164,2600.166,2600.17,2600.172,2600.174,2600.178,2600.218,2600.22,2600.222,2600.227,2600.229,2600.231,2600.234,2600.274,2600.276,2600.278,2600.281,2600.283,2600.285,2600.289,2600.331,2600.333,2600.335,2600.338,2600.34,2600.342,2600.347,2600.386,2600.388,2600.39,2600.393,2600.395,2600.397,2600.401,2600.444,2600.446,2600.448,2600.452,2600.454,2600.456,2600.46,2600.503,2600.505,2600.507,2600.513,2600.515,2600.517,2600.52,2600.56,2600.562,2600.564,2600.567,2600.569,2600.571,2600.574,2600.615,2600.617,2600.619,2600.622,2600.624,2600.626,2600.631,2600.671,2600.673,2600.675,2600.677,2600.679,2600.681,2600.685,2600.728,2600.73,2600.732,2600.737,2600.739,2600.741,2600.745,2600.787,2600.789,2600.791,2600.795,2600.797,2600.799,2600.803,2600.845,2600.847,2600.849,2600.852,2600.854,2600.856,2600.86,2600.903,2600.905,2600.907,2600.911,2600.913,2600.915,2600.918,2600.962,2600.964,2600.966,2600.97,2600.972,2600.974,2600.979,2601.018,2601.02,2601.022,2601.025,2601.027,2601.029,2601.033,2601.075,2601.077,2601.079,2601.082,2601.084,2601.086,2601.09,2601.132,2601.134,2601.136,2601.139,2601.141,2601.143,2601.147,2601.187,2601.189,2601.191,2601.197,2601.199,2601.201,2601.204,2601.242,2601.244,2601.246,2601.248,2601.25,2601.252,2601.255,2601.297,2601.299,2601.301,2601.304,2601.306,2601.308,2601.311,2601.351,2601.353,2601.355,2601.358,2601.36,2601.362,2601.367,2601.41,2601.412,2601.414,2601.417,2601.419,2601.421,2601.425,2601.465,2601.467,2601.469,2601.472,2601.474,2601.476,2601.48,2601.523,2601.525,2601.527,2601.53,2601.532,2601.534,2601.538,2601.578,2601.58,2601.582,2601.585,2601.587,2601.589,2601.594,2601.636,2601.638,2601.64,2601.643,2601.645,2601.647,2601.652,2601.694,2601.696,2601.698,2601.701,2601.703,2601.705,2601.71,2601.749,2601.751,2601.753,2601.755,2601.757,2601.76,2601.763,2601.805,2601.807,2601.809,2601.813,2601.815,2601.817,2601.82,2601.862,2601.864,2601.866,2601.871,2601.873,2601.875,2601.88,2601.917,2601.919,2601.921,2601.923,2601.925,2601.927,2601.931,2601.973,2601.975,2601.977,2601.98,2601.982,2601.984,2601.988,2602.029,2602.031,2602.033,2602.037,2602.039,2602.041,2602.044,2602.084,2602.086,2602.088,2602.092,2602.094,2602.096,2602.102,2602.146,2602.148,2602.15,2602.153,2602.155,2602.157,2602.162,2602.204,2602.206,2602.208,2602.211,2602.213,2602.215,2602.22,2602.261,2602.263,2602.265,2602.268,2602.27,2602.272,2602.276,2602.318,2602.321,2602.327,2602.329,2602.331,2602.334,2602.336,2602.378,2602.384,2602.386,2602.388,2602.391,2602.393,2602.395,2602.437,2602.442,2602.444,2602.446,2602.449,2602.451,2602.453,2602.496,2602.5,2602.502,2602.504,2602.507,2602.509,2602.511,2602.552,2602.556,2602.558,2602.56,2602.564,2602.566,2602.568,2602.609,2602.614,2602.616,2602.618,2602.622,2602.624,2602.626,2602.666,2602.668,2602.67,2602.672,2602.675,2602.677,2602.679,2602.722,2602.726,2602.728,2602.73,2602.732,2602.735,2602.737,2602.777,2602.779,2602.781,2602.783,2602.786,2602.788,2602.79,2602.83,2602.834,2602.836,2602.838,2602.842,2602.844,2602.846,2602.886,2602.891,2602.893,2602.895,2602.9,2602.902,2602.904,2602.946,2602.949,2602.951,2602.953,2602.955,2602.958,2602.96,2602.998,2603.001,2603.003,2603.005,2603.008,2603.01,2603.012,2603.051,2603.057,2603.059,2603.061,2603.064,2603.066,2603.068,2603.11,2603.116,2603.118,2603.12,2603.124,2603.126,2603.128,2603.168,2603.172,2603.174,2603.176,2603.18,2603.182,2603.184,2603.223,2603.228,2603.23,2603.232,2603.236,2603.238,2603.24,2603.282,2603.287,2603.289,2603.291,2603.295,2603.297,2603.299,2603.338,2603.341,2603.343,2603.345,2603.35,2603.352,2603.354,2603.395,2603.4,2603.402,2603.404,2603.409,2603.411,2603.413,2603.457,2603.459,2603.461,2603.463,2603.465,2603.467,2603.469,2603.511,2603.513,2603.515,2603.517,2603.52,2603.522,2603.524,2603.567,2603.571,2603.573,2603.575,2603.579,2603.581,2603.583,2603.623,2603.626,2603.628,2603.63,2603.633,2603.635,2603.637,2603.677,2603.679,2603.681,2603.683,2603.686,2603.688,2603.69,2603.73,2603.733,2603.735,2603.737,2603.741,2603.743,2603.745,2603.785,2603.787,2603.789,2603.791,2603.795,2603.797,2603.799,2603.838,2603.843,2603.845,2603.847,2603.851,2603.853,2603.855,2603.897,2603.902,2603.904,2603.906,2603.909,2603.911,2603.913,2603.954,2603.959,2603.961,2603.963,2603.966,2603.968,2603.97,2604.011,2604.014,2604.016,2604.018,2604.02,2604.022,2604.024,2604.064,2604.07,2604.072,2604.074,2604.077,2604.079,2604.081,2604.122,2604.127,2604.129,2604.131,2604.135,2604.137,2604.139,2604.178,2604.184,2604.186,2604.188,2604.191,2604.193,2604.195,2604.239,2604.244,2604.246,2604.248,2604.251,2604.253,2604.255,2604.295,2604.301,2604.303,2604.305,2604.309,2604.311,2604.313,2604.355,2604.361,2604.363,2604.365,2604.37,2604.372,2604.374,2604.414,2604.418,2604.42,2604.422,2604.424,2604.427,2604.429,2604.468,2604.473,2604.475,2604.477,2604.48,2604.482,2604.484,2604.527,2604.532,2604.534,2604.536,2604.54,2604.542,2604.544,2604.584,2604.589,2604.591,2604.593,2604.597,2604.599,2604.601,2604.641,2604.646,2604.648,2604.65,2604.655,2604.657,2604.659,2604.699,2604.704,2604.706,2604.708,2604.71,2604.713,2604.716,2604.758,2604.76,2604.762,2604.765,2604.767,2604.769,2604.774,2604.814,2604.816,2604.818,2604.821,2604.823,2604.825,2604.828,2604.869,2604.871,2604.873,2604.875,2604.877,2604.882,2604.884,2604.925,2604.931,2604.933,2604.935,2604.939,2604.941,2604.943,2604.985,2604.991,2604.993,2604.995,2604.999,2605.001,2605.003,2605.045,2605.048,2605.05,2605.052,2605.054,2605.056,2605.058,2605.098,2605.103,2605.105,2605.107,2605.111,2605.113,2605.115,2605.157,2605.16,2605.162,2605.164,2605.167,2605.169,2605.171,2605.212,2605.214,2605.216,2605.218,2605.22,2605.222,2605.224,2605.263,2605.268,2605.27,2605.272,2605.275,2605.277,2605.279,2605.32,2605.324,2605.326,2605.328,2605.332,2605.334,2605.336,2605.376,2605.381,2605.383,2605.385,2605.388,2605.39,2605.392,2605.435,2605.439,2605.441,2605.443,2605.448,2605.45,2605.452,2605.493,2605.495,2605.497,2605.499,2605.502,2605.504,2605.506,2605.545,2605.549,2605.551,2605.553,2605.556,2605.558,2605.56,2605.601,2605.605,2605.607,2605.609,2605.614,2605.616,2605.618,2605.66,2605.662,2605.664,2605.666,2605.67,2605.672,2605.674,2605.713,2605.719,2605.721,2605.723,2605.726,2605.728,2605.73,2605.772,2605.775,2605.777,2605.779,2605.781,2605.783,2605.785,2605.824,2605.829,2605.831,2605.833,2605.835,2605.838,2605.842,2605.88,2605.882,2605.885,2605.888,2605.89,2605.892,2605.897,2605.939,2605.941,2605.943,2605.946,2605.948,2605.95,2605.955,2605.994,2605.996,2605.998,2606.0,2606.002,2606.007,2606.009,2606.052,2606.058,2606.06,2606.062,2606.065,2606.067,2606.069,2606.109,2606.115,2606.117,2606.119,2606.125,2606.127,2606.129,2606.17,2606.172,2606.174,2606.176,2606.181,2606.183,2606.185,2606.226,2606.228,2606.23,2606.232,2606.235,2606.237,2606.239,2606.282,2606.287,2606.289,2606.291,2606.296,2606.298,2606.3,2606.341,2606.345,2606.347,2606.349,2606.353,2606.355,2606.357,2606.398,2606.401,2606.403,2606.405,2606.409,2606.411,2606.413,2606.455,2606.46,2606.462,2606.464,2606.469,2606.471,2606.473,2606.515,2606.518,2606.52,2606.522,2606.527,2606.529,2606.531,2606.572,2606.574,2606.576,2606.578,2606.581,2606.583,2606.585,2606.625,2606.627,2606.629,2606.631,2606.634,2606.638,2606.64,2606.681,2606.687,2606.689,2606.691,2606.694,2606.696,2606.698,2606.74,2606.745,2606.747,2606.749,2606.752,2606.754,2606.756,2606.8,2606.803,2606.805,2606.807,2606.81,2606.812,2606.814,2606.853,2606.856,2606.858,2606.86,2606.863,2606.865,2606.867,2606.911,2606.916,2606.918,2606.92,2606.923,2606.925,2606.927,2606.97,2606.974,2606.976,2606.978,2606.982,2606.984,2606.986,2607.028,2607.033,2607.035,2607.037,2607.04,2607.042,2607.044,2607.086,2607.089,2607.091,2607.093,2607.097,2607.099,2607.101,2607.143,2607.148,2607.15,2607.152,2607.158,2607.16,2607.162,2607.203,2607.208,2607.21,2607.212,2607.218,2607.22,2607.222,2607.265,2607.269,2607.271,2607.273,2607.275,2607.278,2607.28,2607.318,2607.324,2607.326,2607.328,2607.331,2607.333,2607.335,2607.377,2607.382,2607.384,2607.386,2607.39,2607.392,2607.394,2607.434,2607.44,2607.442,2607.444,2607.447,2607.449,2607.451,2607.493,2607.497,2607.499,2607.501,2607.504,2607.506,2607.508,2607.549,2607.553,2607.555,2607.557,2607.563,2607.565,2607.567,2607.608,2607.612,2607.614,2607.616,2607.622,2607.624,2607.626,2607.665,2607.67,2607.672,2607.674,2607.678,2607.68,2607.682,2607.722,2607.725,2607.727,2607.729,2607.731,2607.733,2607.735,2607.775,2607.779,2607.781,2607.783,2607.789,2607.791,2607.793,2607.835,2607.839,2607.841,2607.843,2607.849,2607.851,2607.853,2607.893,2607.898,2607.9,2607.902,2607.908,2607.91,2607.912,2607.955,2607.96,2607.962,2607.964,2607.968,2607.97,2607.972,2608.015,2608.017,2608.019,2608.021,2608.026,2608.028,2608.03,2608.069,2608.075,2608.077,2608.079,2608.082,2608.084,2608.086,2608.127,2608.132,2608.134,2608.136,2608.14,2608.142,2608.144,2608.184,2608.189,2608.191,2608.193,2608.197,2608.199,2608.201,2608.241,2608.244,2608.246,2608.248,2608.253,2608.255,2608.257,2608.297,2608.299,2608.301,2608.303,2608.306,2608.308,2608.31,2608.352,2608.358,2608.36,2608.362,2608.365,2608.367,2608.369,2608.411,2608.416,2608.418,2608.42,2608.425,2608.427,2608.429,2608.472,2608.477,2608.479,2608.481,2608.485,2608.487,2608.489,2608.532,2608.538,2608.54,2608.542,2608.545,2608.547,2608.549,2608.592,2608.597,2608.599,2608.601,2608.605,2608.607,2608.609,2608.648,2608.653,2608.655,2608.657,2608.66,2608.662,2608.664,2608.704,2608.71,2608.712,2608.714,2608.72,2608.722,2608.724,2608.763,2608.767,2608.769,2608.771,2608.777,2608.779,2608.781,2608.82,2608.822,2608.824,2608.826,2608.829,2608.831,2608.833,2608.875,2608.879,2608.881,2608.883,2608.886,2608.888,2608.89,2608.929,2608.934,2608.936,2608.938,2608.941,2608.943,2608.945,2608.987,2608.992,2608.994,2608.996,2608.999,2609.001,2609.003,2609.042,2609.048,2609.05,2609.052,2609.055,2609.057,2609.059,2609.102,2609.107,2609.109,2609.111,2609.115,2609.117,2609.119,2609.161,2609.167,2609.169,2609.171,2609.175,2609.177,2609.179,2609.221,2609.226,2609.228,2609.23,2609.233,2609.235,2609.237,2609.281,2609.285,2609.287,2609.289,2609.293,2609.295,2609.297,2609.335,2609.338,2609.34,2609.342,2609.345,2609.347,2609.349,2609.388,2609.393,2609.395,2609.397,2609.4,2609.402,2609.404,2609.444,2609.449,2609.451,2609.453,2609.457,2609.459,2609.461,2609.5,2609.506,2609.508,2609.51,2609.513,2609.515,2609.517,2609.56,2609.562,2609.564,2609.566,2609.569,2609.571,2609.573,2609.614,2609.618,2609.62,2609.622,2609.626,2609.628,2609.63,2609.673,2609.678,2609.68,2609.682,2609.685,2609.687,2609.689,2609.728,2609.734,2609.736,2609.738,2609.741,2609.743,2609.745,2609.787,2609.789,2609.791,2609.793,2609.797,2609.799,2609.801,2609.843,2609.848,2609.85,2609.852,2609.858,2609.86,2609.862,2609.902,2609.906,2609.908,2609.91,2609.914,2609.916,2609.918,2609.959,2609.964,2609.966,2609.968,2609.971,2609.973,2609.975,2610.017,2610.023,2610.025,2610.027,2610.03,2610.032,2610.034,2610.075,2610.08,2610.082,2610.084,2610.087,2610.089,2610.091,2610.133,2610.139,2610.141,2610.143,2610.146,2610.148,2610.15,2610.191,2610.195,2610.197,2610.199,2610.203,2610.205,2610.207,2610.25,2610.253,2610.255,2610.257,2610.261,2610.263,2610.265,2610.306,2610.309,2610.311,2610.313,2610.317,2610.319,2610.321,2610.363,2610.368,2610.37,2610.372,2610.375,2610.377,2610.379,2610.42,2610.425,2610.427,2610.429,2610.432,2610.434,2610.436,2610.48,2610.485,2610.487,2610.489,2610.492,2610.494,2610.496,2610.536,2610.539,2610.541,2610.543,2610.546,2610.548,2610.55,2610.591,2610.596,2610.598,2610.6,2610.603,2610.605,2610.607,2610.648,2610.653,2610.655,2610.657,2610.66,2610.662,2610.664,2610.704,2610.709,2610.711,2610.713,2610.716,2610.718,2610.72,2610.761,2610.763,2610.765,2610.767,2610.771,2610.773,2610.775,2610.816,2610.819,2610.821,2610.823,2610.827,2610.829,2610.831,2610.872,2610.878,2610.88,2610.882,2610.885,2610.887,2610.889,2610.933,2610.936,2610.938,2610.94,2610.944,2610.946,2610.948,2610.987,2610.993,2610.995,2610.997,2611.0,2611.002,2611.004,2611.045,2611.048,2611.05,2611.052,2611.055,2611.057,2611.059,2611.098,2611.103,2611.105,2611.107,2611.111,2611.113,2611.115,2611.155,2611.157,2611.159,2611.161,2611.164,2611.166,2611.168,2611.21,2611.215,2611.217,2611.219,2611.221,2611.223,2611.225,2611.266,2611.271,2611.273,2611.275,2611.279,2611.281,2611.283,2611.323,2611.325,2611.327,2611.329,2611.332,2611.334,2611.336,2611.376,2611.381,2611.383,2611.385,2611.388,2611.39,2611.392,2611.433,2611.435,2611.437,2611.439,2611.442,2611.444,2611.446,2611.488,2611.49,2611.492,2611.494,2611.497,2611.499,2611.501,2611.54,2611.544,2611.546,2611.548,2611.55,2611.553,2611.555,2611.594,2611.596,2611.598,2611.6,2611.603,2611.605,2611.607,2611.647,2611.651,2611.653,2611.655,2611.659,2611.661,2611.663,2611.707,2611.709,2611.711,2611.713,2611.718,2611.72,2611.722,2611.763,2611.768,2611.77,2611.772,2611.775,2611.777,2611.779,2611.817,2611.82,2611.822,2611.824,2611.828,2611.83,2611.832,2611.872,2611.876,2611.878,2611.88,2611.883,2611.885,2611.887,2611.93,2611.935,2611.937,2611.939
